# Pulseq sequence file
# Created by Python/GPI Lab

# Format of blocks:
#  #  D RF  GX  GY  GZ ADC
[BLOCKS]
  1  0  1   0   0   1  0
  2  0  0   2   3   4  0
  3  1  0   0   0   0  0
  4  0  0   0   0   5  0
  5  0  2   0   0   0  0
  6  0  0   0   0   5  0
  7  2  0   0   0   0  0
  8  0  0   6   0   0  1
  9  0  0   0   7   0  0
 10  0  0   8   0   0  1
 11  0  0   0   7   0  0
 12  0  0   6   0   0  1
 13  0  0   0   7   0  0
 14  0  0   8   0   0  1
 15  0  0   0   7   0  0
 16  0  0   6   0   0  1
 17  0  0   0   7   0  0
 18  0  0   8   0   0  1
 19  0  0   0   7   0  0
 20  0  0   6   0   0  1
 21  0  0   0   7   0  0
 22  0  0   8   0   0  1
 23  0  0   0   7   0  0
 24  0  0   6   0   0  1
 25  0  0   0   7   0  0
 26  0  0   8   0   0  1
 27  0  0   0   7   0  0
 28  0  0   6   0   0  1
 29  0  0   0   7   0  0
 30  0  0   8   0   0  1
 31  0  0   0   7   0  0
 32  0  0   6   0   0  1
 33  0  0   0   7   0  0
 34  0  0   8   0   0  1
 35  0  0   0   7   0  0
 36  0  0   6   0   0  1
 37  0  0   0   7   0  0
 38  0  0   8   0   0  1
 39  0  0   0   7   0  0
 40  0  0   6   0   0  1
 41  0  0   0   7   0  0
 42  0  0   8   0   0  1
 43  0  0   0   7   0  0
 44  0  0   6   0   0  1
 45  0  0   0   7   0  0
 46  0  0   8   0   0  1
 47  0  0   0   7   0  0
 48  0  0   6   0   0  1
 49  0  0   0   7   0  0
 50  0  0   8   0   0  1
 51  0  0   0   7   0  0
 52  0  0   6   0   0  1
 53  0  0   0   7   0  0
 54  0  0   8   0   0  1
 55  0  0   0   7   0  0
 56  0  0   6   0   0  1
 57  0  0   0   7   0  0
 58  0  0   8   0   0  1
 59  0  0   0   7   0  0
 60  0  0   6   0   0  1
 61  0  0   0   7   0  0
 62  0  0   8   0   0  1
 63  0  0   0   7   0  0
 64  0  0   6   0   0  1
 65  0  0   0   7   0  0
 66  0  0   8   0   0  1
 67  0  0   0   7   0  0
 68  0  0   6   0   0  1
 69  0  0   0   7   0  0
 70  0  0   8   0   0  1
 71  0  0   0   7   0  0
 72  0  0   6   0   0  1
 73  0  0   0   7   0  0
 74  0  0   8   0   0  1
 75  0  0   0   7   0  0
 76  0  0   6   0   0  1
 77  0  0   0   7   0  0
 78  0  0   8   0   0  1
 79  0  0   0   7   0  0
 80  0  0   6   0   0  1
 81  0  0   0   7   0  0
 82  0  0   8   0   0  1
 83  0  0   0   7   0  0
 84  0  0   6   0   0  1
 85  0  0   0   7   0  0
 86  0  0   8   0   0  1
 87  0  0   0   7   0  0
 88  0  0   6   0   0  1
 89  0  0   0   7   0  0
 90  0  0   8   0   0  1
 91  0  0   0   7   0  0
 92  0  0   6   0   0  1
 93  0  0   0   7   0  0
 94  0  0   8   0   0  1
 95  0  0   0   7   0  0
 96  0  0   6   0   0  1
 97  0  0   0   7   0  0
 98  0  0   8   0   0  1
 99  0  0   0   7   0  0
100  0  0   6   0   0  1
101  0  0   0   7   0  0
102  0  0   8   0   0  1
103  0  0   0   7   0  0
104  0  0   6   0   0  1
105  0  0   0   7   0  0
106  0  0   8   0   0  1
107  0  0   0   7   0  0
108  0  0   6   0   0  1
109  0  0   0   7   0  0
110  0  0   8   0   0  1
111  0  0   0   7   0  0
112  0  0   6   0   0  1
113  0  0   0   7   0  0
114  0  0   8   0   0  1
115  0  0   0   7   0  0
116  0  0   6   0   0  1
117  0  0   0   7   0  0
118  0  0   8   0   0  1
119  0  0   0   7   0  0
120  0  0   6   0   0  1
121  0  0   0   7   0  0
122  0  0   8   0   0  1
123  0  0   0   7   0  0
124  0  0   6   0   0  1
125  0  0   0   7   0  0
126  0  0   8   0   0  1
127  0  0   0   7   0  0
128  0  0   6   0   0  1
129  0  0   0   7   0  0
130  0  0   8   0   0  1
131  0  0   0   7   0  0
132  0  0   6   0   0  1
133  0  0   0   7   0  0
134  0  0   8   0   0  1
135  0  0   0   7   0  0
136  3  0   0   0   0  0

# Format of RF events:
# id amplitude mag_id phase_id freq phase
# ..        Hz   ....     ....   Hz   rad
[RF]
1      394.982 1 2 0 0
2         1000 3 4 0 0

# Format of trapezoid gradients:
# id amplitude rise flat fall
# ..      Hz/m   us   us   us
[TRAP]
 1       533333 120 2500 120
 2      -408131  90  620  90
 3      -193939  50  700  50
 4 -1.39733e+06 300  200 300
 5  1.32449e+06 290 1820 290
 6  1.13636e+06 250  256 250
 7      90909.1  20   30  20
 8 -1.13636e+06 250  256 250

# Format of ADC events:
# id num dwell delay freq phase
# ..  ..    ns    us   Hz   rad
[ADC]
 1  64   4000 250 0 0

# Format of delays:
# id delay (us)
[DELAYS]
1 30171
2 5531
3 1000000

# Sequence Shapes
[SHAPES]

shape_id 1
num_samples 2620
0
0
120
2.40675e-08
4.69153e-08
7.74239e-08
1.15615e-07
1.6151e-07
2.15129e-07
2.76492e-07
3.45619e-07
4.22527e-07
5.07234e-07
5.99759e-07
7.00117e-07
8.08325e-07
9.24397e-07
1.04835e-06
1.18019e-06
1.31995e-06
1.46762e-06
1.62322e-06
1.78676e-06
1.95826e-06
2.13772e-06
2.32515e-06
2.52057e-06
2.72397e-06
2.93537e-06
3.15477e-06
3.38218e-06
3.6176e-06
3.86104e-06
4.1125e-06
4.37198e-06
4.6395e-06
4.91504e-06
5.19861e-06
5.49021e-06
5.78984e-06
6.09749e-06
6.41318e-06
6.73688e-06
7.06861e-06
7.40835e-06
7.75611e-06
8.11187e-06
8.47563e-06
8.84738e-06
9.22712e-06
9.61483e-06
1.00105e-05
1.04142e-05
1.08257e-05
1.12453e-05
1.16727e-05
1.21081e-05
1.25513e-05
1.30025e-05
1.34615e-05
1.39283e-05
1.4403e-05
1.48855e-05
1.53759e-05
1.5874e-05
1.63798e-05
1.68934e-05
1.74148e-05
1.79438e-05
1.84805e-05
1.90249e-05
1.95769e-05
2.01365e-05
2.07037e-05
2.12784e-05
2.18607e-05
2.24505e-05
2.30477e-05
2.36524e-05
2.42646e-05
2.48841e-05
2.55109e-05
2.61451e-05
2.67865e-05
2.74353e-05
2.80912e-05
2.87543e-05
2.94246e-05
3.0102e-05
3.07865e-05
3.1478e-05
3.21765e-05
3.28819e-05
3.35943e-05
3.43136e-05
3.50397e-05
3.57726e-05
3.65123e-05
3.72586e-05
3.80117e-05
3.87713e-05
3.95376e-05
4.03103e-05
4.10896e-05
4.18752e-05
4.26673e-05
4.34657e-05
4.42703e-05
4.50812e-05
4.58983e-05
4.67215e-05
4.75508e-05
4.83861e-05
4.92273e-05
5.00745e-05
5.09275e-05
5.17864e-05
5.26509e-05
5.35212e-05
5.4397e-05
5.52785e-05
5.61654e-05
5.70578e-05
5.79555e-05
5.88586e-05
5.97669e-05
6.06804e-05
6.1599e-05
6.25227e-05
6.34514e-05
6.4385e-05
6.53235e-05
6.62668e-05
6.72147e-05
6.81674e-05
6.91246e-05
7.00863e-05
7.10525e-05
7.2023e-05
7.29979e-05
7.39769e-05
7.49601e-05
7.59474e-05
7.69387e-05
7.79339e-05
7.89329e-05
7.99358e-05
8.09423e-05
8.19524e-05
8.2966e-05
8.39831e-05
8.50036e-05
8.60273e-05
8.70543e-05
8.80844e-05
8.91175e-05
9.01536e-05
9.11925e-05
9.22343e-05
9.32788e-05
9.43258e-05
9.53754e-05
9.64275e-05
9.74819e-05
9.85385e-05
9.95974e-05
0.000100658
0.000101721
0.000102786
0.000103853
0.000104921
0.000105991
0.000107063
0.000108136
0.00010921
0.000110285
0.000111362
0.00011244
0.000113519
0.000114598
0.000115679
0.00011676
0.000117842
0.000118924
0.000120006
0.000121089
0.000122172
0.000123255
0.000124338
0.000125421
0.000126503
0.000127586
0.000128668
0.000129749
0.00013083
0.00013191
0.000132989
0.000134067
0.000135144
0.00013622
0.000137294
0.000138367
0.000139439
0.000140509
0.000141577
0.000142644
0.000143708
0.000144771
0.000145831
0.000146889
0.000147945
0.000148998
0.000150049
0.000151097
0.000152142
0.000153184
0.000154223
0.000155259
0.000156292
0.000157321
0.000158347
0.000159369
0.000160387
0.000161401
0.000162412
0.000163418
0.00016442
0.000165418
0.000166412
0.000167401
0.000168385
0.000169364
0.000170338
0.000171308
0.000172272
0.000173231
0.000174185
0.000175133
0.000176075
0.000177012
0.000177942
0.000178867
0.000179786
0.000180698
0.000181604
0.000182504
0.000183397
0.000184283
0.000185162
0.000186035
0.0001869
0.000187758
0.000188609
0.000189452
0.000190288
0.000191116
0.000191936
0.000192748
0.000193552
0.000194348
0.000195136
0.000195915
0.000196686
0.000197448
0.000198201
0.000198945
0.00019968
0.000200406
0.000201122
0.000201829
0.000202527
0.000203215
0.000203893
0.000204561
0.000205219
0.000205866
0.000206504
0.000207131
0.000207747
0.000208353
0.000208948
0.000209532
0.000210105
0.000210667
0.000211218
0.000211757
0.000212284
0.0002128
0.000213304
0.000213796
0.000214276
0.000214744
0.0002152
0.000215643
0.000216074
0.000216492
0.000216897
0.000217289
0.000217668
0.000218034
0.000218387
0.000218727
0.000219052
0.000219365
0.000219663
0.000219948
0.000220218
0.000220475
0.000220717
0.000220945
0.000221158
0.000221357
0.000221541
0.00022171
0.000221864
0.000222003
0.000222127
0.000222236
0.000222329
0.000222406
0.000222468
0.000222514
0.000222545
0.000222559
0.000222559
0
0.000222539
0.000222504
0.000222453
0.000222385
0.000222301
0.0002222
0.000222082
0.000221946
0.000221794
0.000221624
0.000221437
0.000221233
0.000221011
0.000220771
0.000220513
0.000220237
0.000219944
0.000219632
0.000219302
0.000218953
0.000218586
0.000218201
0.000217796
0.000217373
0.000216931
0.00021647
0.00021599
0.000215491
0.000214972
0.000214434
0.000213876
0.000213299
0.000212702
0.000212085
0.000211449
0.000210792
0.000210115
0.000209418
0.0002087
0.000207963
0.000207204
0.000206425
0.000205625
0.000204805
0.000203964
0.000203101
0.000202218
0.000201313
0.000200387
0.00019944
0.000198471
0.000197481
0.000196469
0.000195436
0.000194381
0.000193303
0.000192204
0.000191083
0.00018994
0.000188774
0.000187586
0.000186376
0.000185143
0.000183888
0.00018261
0.00018131
0.000179986
0.00017864
0.000177271
0.000175879
0.000174464
0.000173025
0.000171564
0.000170079
0.000168571
0.000167039
0.000165484
0.000163905
0.000162302
0.000160676
0.000159026
0.000157353
0.000155655
0.000153933
0.000152187
0.000150418
0.000148624
0.000146806
0.000144963
0.000143096
0.000141205
0.000139289
0.000137349
0.000135384
0.000133395
0.000131381
0.000129342
0.000127279
0.000125191
0.000123077
0.000120939
0.000118776
0.000116588
0.000114375
0.000112137
0.000109873
0.000107585
0.000105271
0.000102932
0.000100567
9.81777e-05
9.57626e-05
9.33221e-05
9.08561e-05
8.83646e-05
8.58476e-05
8.33051e-05
8.0737e-05
7.81432e-05
7.55239e-05
7.28788e-05
7.02081e-05
6.75116e-05
6.47894e-05
6.20414e-05
5.92677e-05
5.64681e-05
5.36427e-05
5.07914e-05
4.79143e-05
4.50113e-05
4.20824e-05
3.91275e-05
3.61467e-05
3.314e-05
3.01074e-05
2.70487e-05
2.39641e-05
2.08535e-05
1.77169e-05
1.45543e-05
1.13658e-05
8.15117e-06
4.91058e-06
1.64398e-06
-1.64863e-06
-4.96725e-06
-8.31187e-06
-1.16825e-05
-1.50791e-05
-1.85017e-05
-2.19503e-05
-2.54249e-05
-2.89254e-05
-3.24519e-05
-3.60044e-05
-3.95828e-05
-4.31871e-05
-4.68173e-05
-5.04733e-05
-5.41553e-05
-5.78631e-05
-6.15968e-05
-6.53562e-05
-6.91415e-05
-7.29525e-05
-7.67893e-05
-8.06517e-05
-8.45399e-05
-8.84537e-05
-9.23932e-05
-9.63583e-05
-0.000100349
-0.000104365
-0.000108407
-0.000112474
-0.000116567
-0.000120684
-0.000124828
-0.000128996
-0.00013319
-0.00013741
-0.000141654
-0.000145923
-0.000150218
-0.000154538
-0.000158882
-0.000163252
-0.000167646
-0.000172066
-0.00017651
-0.000180979
-0.000185472
-0.00018999
-0.000194533
-0.0001991
-0.000203692
-0.000208308
-0.000212948
-0.000217613
-0.000222302
-0.000227015
-0.000231752
-0.000236513
-0.000241298
-0.000246107
-0.000250939
-0.000255795
-0.000260675
-0.000265579
-0.000270506
-0.000275456
-0.000280429
-0.000285426
-0.000290446
-0.000295489
-0.000300555
-0.000305644
-0.000310756
-0.00031589
-0.000321047
-0.000326226
-0.000331428
-0.000336653
-0.000341899
-0.000347168
-0.000352458
-0.000357771
-0.000363106
-0.000368462
-0.00037384
-0.000379239
-0.00038466
-0.000390102
-0.000395566
-0.00040105
-0.000406556
-0.000412082
-0.00041763
-0.000423198
-0.000428786
-0.000434395
-0.000440024
-0.000445674
-0.000451343
-0.000457033
-0.000462742
-0.000468472
-0.00047422
-0.000479988
-0.000485776
-0.000491583
-0.000497409
-0.000503253
-0.000509117
-0.000515
-0.0005209
-0.00052682
-0.000532758
-0.000538713
-0.000544687
-0.000550679
-0.000556688
-0.000562716
-0.00056876
-0.000574822
-0.000580901
-0.000586997
-0.00059311
-0.00059924
-0.000605386
-0.000611549
-0.000617728
-0.000623923
-0.000630135
-0.000636362
-0.000642604
-0.000648863
-0.000655136
-0.000661425
-0.000667729
-0.000674048
-0.000680381
-0.000686729
-0.000693092
-0.000699468
-0.000705859
-0.000712264
-0.000718682
-0.000725114
-0.000731559
-0.000738018
-0.000744489
-0.000750974
-0.000757471
-0.000763981
-0.000770503
-0.000777037
-0.000783583
-0.000790142
-0.000796711
0.000803293
0.000809885
0.000816489
0.000823103
0.000829728
0.000836364
0.00084301
0.000849667
0.000856333
0.000863009
0.000869695
0.00087639
0.000883095
0.000889808
0.000896531
0.000903262
0.000910001
0.000916749
0.000923504
0.000930268
0.000937039
0.000943818
0.000950604
0.000957397
0.000964197
0.000971004
0.000977817
0.000984637
0.000991462
0.000998293
0.00100513
0.00101197
0.00101882
0.00102567
0.00103253
0.00103939
0.00104626
0.00105313
0.00106
0.00106688
0.00107376
0.00108065
0.00108754
0.00109443
0.00110132
0.00110822
0.00111512
0.00112202
0.00112892
0.00113583
0.00114273
0.00114964
0.00115655
0.00116346
0.00117036
0.00117727
0.00118418
0.00119109
0.001198
0.00120491
0.00121182
0.00121872
0.00122563
0.00123253
0.00123943
0.00124633
0.00125323
0.00126012
0.00126702
0.00127391
0.00128079
0.00128767
0.00129455
0.00130143
0.0013083
0.00131517
0.00132203
0.00132889
0.00133574
0.00134259
0.00134943
0.00135627
0.0013631
0.00136992
0.00137674
0.00138355
0.00139036
0.00139716
0.00140395
0.00141073
0.0014175
0.00142427
0.00143103
0.00143778
0.00144452
0.00145125
0.00145797
0.00146469
0.00147139
0.00147809
0.00148477
0.00149144
0.0014981
0.00150476
0.0015114
0.00151803
0.00152464
0.00153125
0.00153784
0.00154442
0.00155099
0.00155755
0.00156409
0.00157062
0.00157713
0.00158364
0.00159012
0.0015966
0.00160306
0.0016095
0.00161593
0.00162234
0.00162874
0.00163512
0.00164149
0.00164784
0.00165417
0.00166049
0.00166679
0.00167308
0.00167934
0.00168559
0.00169182
0.00169803
0.00170422
0.0017104
0.00171656
0.00172269
0.00172881
0.00173491
0.00174099
0.00174704
0.00175308
0.0017591
0.0017651
0.00177107
0.00177703
0.00178296
0.00178887
0.00179476
0.00180062
0.00180647
0.00181229
0.00181809
0.00182386
0.00182962
0.00183535
0.00184105
0.00184673
0.00185239
0.00185802
0.00186362
0.00186921
0.00187476
0.00188029
0.0018858
0.00189128
0.00189673
0.00190216
0.00190756
0.00191293
0.00191828
0.0019236
0.00192889
0.00193415
0.00193939
0.00194459
0.00194977
0.00195492
0.00196004
0.00196514
0.0019702
0.00197523
0.00198023
0.00198521
0.00199015
0.00199506
0.00199994
0.00200479
0.00200961
0.0020144
0.00201916
0.00202388
0.00202858
0.00203324
0.00203787
0.00204246
0.00204703
0.00205155
0.00205605
0.00206051
0.00206494
0.00206934
0.0020737
0.00207803
0.00208232
0.00208658
0.0020908
0.00209499
0.00209914
0.00210326
0.00210734
0.00211138
0.00211539
0.00211936
0.0021233
0.0021272
0.00213106
0.00213489
0.00213868
0.00214243
0.00214614
0.00214981
0.00215345
0.00215705
0.00216061
0.00216413
0.00216761
0.00217106
0.00217446
0.00217782
0.00218115
0.00218443
0.00218768
0.00219089
0.00219405
0.00219717
0.00220026
0.0022033
0.0022063
0.00220926
0.00221218
0.00221506
0.0022179
0.00222069
0.00222345
0.00222616
0.00222882
0.00223145
0.00223403
0.00223657
0.00223907
0.00224152
0.00224393
0.0022463
0.00224862
0.0022509
0.00225314
0.00225533
0.00225748
0.00225958
0.00226164
0.00226365
0.00226562
0.00226755
0.00226942
0.00227126
0.00227305
0.00227479
0.00227649
0.00227814
0.00227974
0.0022813
0.00228281
0.00228428
0.0022857
0.00228707
0.0022884
0.00228968
0.00229091
0.0022921
0.00229324
0.00229433
0.00229537
0.00229637
0.00229732
0.00229822
0.00229907
0.00229988
0.00230063
0.00230134
0.002302
0.00230261
0.00230318
0.00230369
0.00230416
0.00230458
0.00230494
0.00230526
0.00230553
0.00230575
0.00230592
0.00230605
0.00230612
0.00230614
0.00230611
0.00230604
0.00230591
0.00230573
0.00230551
0.00230523
0.0023049
0.00230453
0.0023041
0.00230362
0.00230309
0.00230252
0.00230189
0.00230121
0.00230048
0.0022997
0.00229886
0.00229798
0.00229705
0.00229606
0.00229502
0.00229394
0.0022928
0.00229161
0.00229037
0.00228908
0.00228773
0.00228634
0.00228489
0.00228339
0.00228184
0.00228024
0.00227859
0.00227689
0.00227513
0.00227332
0.00227146
0.00226955
0.00226759
0.00226557
0.00226351
0.00226139
0.00225922
0.002257
0.00225472
0.0022524
0.00225002
0.00224759
0.00224511
0.00224258
0.00223999
0.00223735
0.00223466
0.00223192
0.00222913
0.00222629
0.00222339
0.00222044
0.00221744
0.00221439
0.00221128
0.00220813
0.00220492
0.00220166
0.00219835
0.00219498
0.00219157
0.0021881
0.00218458
0.00218101
0.00217739
0.00217371
0.00216999
0.00216621
0.00216238
0.0021585
0.00215457
0.00215059
0.00214655
0.00214247
0.00213833
0.00213414
0.0021299
0.00212561
0.00212127
0.00211688
0.00211244
0.00210794
0.0021034
0.0020988
0.00209416
0.00208946
0.00208471
0.00207991
0.00207506
0.00207016
0.00206521
0.00206021
0.00205517
0.00205007
0.00204492
0.00203972
0.00203447
0.00202917
0.00202382
0.00201842
0.00201297
0.00200747
0.00200193
0.00199633
0.00199069
0.00198499
0.00197925
0.00197346
0.00196762
0.00196173
0.00195579
0.00194981
0.00194378
0.00193769
0.00193156
0.00192539
0.00191916
0.00191289
0.00190657
0.0019002
0.00189378
0.00188732
0.00188081
0.00187425
0.00186765
0.001861
0.00185431
0.00184756
0.00184077
0.00183394
0.00182706
0.00182013
0.00181316
0.00180614
0.00179908
0.00179197
0.00178482
0.00177762
0.00177037
0.00176309
0.00175575
0.00174838
0.00174095
0.00173349
0.00172598
0.00171843
0.00171083
0.00170319
0.00169551
0.00168779
0.00168002
0.00167221
0.00166435
0.00165646
0.00164852
0.00164054
0.00163252
0.00162446
0.00161635
0.00160821
0.00160002
0.00159179
0.00158352
0.00157521
0.00156686
0.00155848
0.00155005
0.00154158
0.00153307
0.00152452
0.00151594
0.00150731
0.00149865
0.00148994
0.0014812
0.00147242
0.00146361
0.00145475
0.00144586
0.00143693
0.00142797
0.00141896
0.00140992
0.00140085
0.00139173
0.00138259
0.0013734
0.00136418
0.00135493
0.00134564
0.00133631
0.00132696
0.00131756
0.00130813
0.00129867
0.00128918
0.00127965
0.00127009
0.00126049
0.00125087
0.00124121
0.00123151
0.00122179
0.00121203
0.00120224
0.00119243
0.00118258
0.0011727
0.00116278
0.00115284
0.00114287
0.00113287
0.00112284
0.00111278
0.00110269
0.00109257
0.00108242
0.00107225
0.00106205
0.00105181
0.00104156
0.00103127
0.00102096
0.00101062
0.00100025
0.000989861
0.000979443
0.000968999
0.00095853
0.000948036
0.000937517
0.000926973
0.000916405
0.000905813
0.000895197
0.000884558
0.000873895
0.00086321
0.000852502
0.000841771
0.000831018
0.000820244
0.000809447
0.00079863
0.000787791
0.000776932
0.000766052
0.000755152
0.000744232
0.000733293
0.000722334
0.000711356
0.00070036
0.000689345
0.000678312
0.00066726
0.000656192
0.000645106
0.000634003
0.000622883
0.000611747
0.000600594
0.000589426
0.000578242
0.000567043
0.000555829
0.0005446
0.000533357
0.000522099
0.000510828
0.000499544
0.000488246
0.000476935
0.000465612
0.000454276
0.000442928
0.000431569
0.000420198
0.000408816
0.000397423
0.00038602
0.000374606
0.000363183
0.000351749
0.000340307
0.000328856
0.000317395
0.000305927
0.00029445
0.000282966
0.000271474
0.000259975
0.000248468
0.000236956
0.000225437
0.000213912
0.000202381
0.000190845
0.000179304
0.000167759
0.000156208
0.000144654
0.000133096
0.000121534
0.000109969
9.84013e-05
8.68308e-05
7.5258e-05
6.36833e-05
5.21068e-05
4.05289e-05
2.895e-05
1.73703e-05
5.79016e-06
-5.79016e-06
-1.73703e-05
-2.895e-05
-4.05289e-05
-5.21068e-05
-6.36833e-05
-7.5258e-05
-8.68308e-05
-9.84013e-05
-0.000109969
-0.000121534
-0.000133096
-0.000144654
-0.000156208
-0.000167759
-0.000179304
-0.000190845
-0.000202381
-0.000213912
-0.000225437
-0.000236956
-0.000248468
-0.000259975
-0.000271474
-0.000282966
-0.00029445
-0.000305927
-0.000317395
-0.000328856
-0.000340307
-0.000351749
-0.000363183
-0.000374606
-0.00038602
-0.000397423
-0.000408816
-0.000420198
-0.000431569
-0.000442928
-0.000454276
-0.000465612
-0.000476935
-0.000488246
-0.000499544
-0.000510828
-0.000522099
-0.000533357
-0.0005446
-0.000555829
-0.000567043
-0.000578242
-0.000589426
-0.000600594
-0.000611747
-0.000622883
-0.000634003
-0.000645106
-0.000656192
-0.00066726
-0.000678312
-0.000689345
-0.00070036
-0.000711356
-0.000722334
-0.000733293
-0.000744232
-0.000755152
-0.000766052
-0.000776932
-0.000787791
-0.00079863
-0.000809447
-0.000820244
-0.000831018
-0.000841771
-0.000852502
-0.00086321
-0.000873895
-0.000884558
-0.000895197
-0.000905813
-0.000916405
-0.000926973
-0.000937517
-0.000948036
-0.00095853
-0.000968999
-0.000979443
-0.000989861
-0.00100025
-0.00101062
-0.00102096
-0.00103127
-0.00104156
-0.00105181
-0.00106205
-0.00107225
-0.00108242
-0.00109257
-0.00110269
-0.00111278
-0.00112284
-0.00113287
-0.00114287
-0.00115284
-0.00116278
-0.0011727
-0.00118258
-0.00119243
-0.00120224
-0.00121203
-0.00122179
-0.00123151
-0.00124121
-0.00125087
-0.00126049
-0.00127009
-0.00127965
-0.00128918
-0.00129867
-0.00130813
-0.00131756
-0.00132696
-0.00133631
-0.00134564
-0.00135493
-0.00136418
-0.0013734
-0.00138259
-0.00139173
-0.00140085
-0.00140992
-0.00141896
-0.00142797
-0.00143693
-0.00144586
-0.00145475
-0.00146361
-0.00147242
-0.0014812
-0.00148994
-0.00149865
-0.00150731
-0.00151594
-0.00152452
-0.00153307
-0.00154158
-0.00155005
-0.00155848
-0.00156686
-0.00157521
-0.00158352
-0.00159179
-0.00160002
-0.00160821
-0.00161635
-0.00162446
-0.00163252
-0.00164054
-0.00164852
-0.00165646
-0.00166435
-0.00167221
-0.00168002
-0.00168779
-0.00169551
-0.00170319
-0.00171083
-0.00171843
-0.00172598
-0.00173349
-0.00174095
-0.00174838
-0.00175575
-0.00176309
-0.00177037
-0.00177762
-0.00178482
-0.00179197
-0.00179908
-0.00180614
-0.00181316
-0.00182013
-0.00182706
-0.00183394
-0.00184077
-0.00184756
-0.00185431
-0.001861
-0.00186765
-0.00187425
-0.00188081
-0.00188732
-0.00189378
-0.0019002
-0.00190657
-0.00191289
-0.00191916
-0.00192539
-0.00193156
-0.00193769
-0.00194378
-0.00194981
-0.00195579
-0.00196173
-0.00196762
-0.00197346
-0.00197925
-0.00198499
-0.00199069
-0.00199633
-0.00200193
-0.00200747
-0.00201297
-0.00201842
-0.00202382
-0.00202917
-0.00203447
-0.00203972
-0.00204492
-0.00205007
-0.00205517
-0.00206021
-0.00206521
-0.00207016
-0.00207506
-0.00207991
-0.00208471
-0.00208946
-0.00209416
-0.0020988
-0.0021034
-0.00210794
-0.00211244
-0.00211688
-0.00212127
-0.00212561
-0.0021299
-0.00213414
-0.00213833
-0.00214247
-0.00214655
-0.00215059
-0.00215457
-0.0021585
-0.00216238
-0.00216621
-0.00216999
-0.00217371
-0.00217739
-0.00218101
-0.00218458
-0.0021881
-0.00219157
-0.00219498
-0.00219835
-0.00220166
-0.00220492
-0.00220813
-0.00221128
-0.00221439
-0.00221744
-0.00222044
-0.00222339
-0.00222629
-0.00222913
-0.00223192
-0.00223466
-0.00223735
-0.00223999
-0.00224258
-0.00224511
-0.00224759
-0.00225002
-0.0022524
-0.00225472
-0.002257
-0.00225922
-0.00226139
-0.00226351
-0.00226557
-0.00226759
-0.00226955
-0.00227146
-0.00227332
-0.00227513
-0.00227689
-0.00227859
-0.00228024
-0.00228184
-0.00228339
-0.00228489
-0.00228634
-0.00228773
-0.00228908
-0.00229037
-0.00229161
-0.0022928
-0.00229394
-0.00229502
-0.00229606
-0.00229705
-0.00229798
-0.00229886
-0.0022997
-0.00230048
-0.00230121
-0.00230189
-0.00230252
-0.00230309
-0.00230362
-0.0023041
-0.00230453
-0.0023049
-0.00230523
-0.00230551
-0.00230573
-0.00230591
-0.00230604
-0.00230611
-0.00230614
-0.00230612
-0.00230605
-0.00230592
-0.00230575
-0.00230553
-0.00230526
-0.00230494
-0.00230458
-0.00230416
-0.00230369
-0.00230318
-0.00230261
-0.002302
-0.00230134
-0.00230063
-0.00229988
-0.00229907
-0.00229822
-0.00229732
-0.00229637
-0.00229537
-0.00229433
-0.00229324
-0.0022921
-0.00229091
-0.00228968
-0.0022884
-0.00228707
-0.0022857
-0.00228428
-0.00228281
-0.0022813
-0.00227974
-0.00227814
-0.00227649
-0.00227479
-0.00227305
-0.00227126
-0.00226942
-0.00226755
-0.00226562
-0.00226365
-0.00226164
-0.00225958
-0.00225748
-0.00225533
-0.00225314
-0.0022509
-0.00224862
-0.0022463
-0.00224393
-0.00224152
-0.00223907
-0.00223657
-0.00223403
-0.00223145
-0.00222882
-0.00222616
-0.00222345
-0.00222069
-0.0022179
-0.00221506
-0.00221218
-0.00220926
-0.0022063
-0.0022033
-0.00220026
-0.00219717
-0.00219405
-0.00219089
-0.00218768
-0.00218443
-0.00218115
-0.00217782
-0.00217446
-0.00217106
-0.00216761
-0.00216413
-0.00216061
-0.00215705
-0.00215345
-0.00214981
-0.00214614
-0.00214243
-0.00213868
-0.00213489
-0.00213106
-0.0021272
-0.0021233
-0.00211936
-0.00211539
-0.00211138
-0.00210734
-0.00210326
-0.00209914
-0.00209499
-0.0020908
-0.00208658
-0.00208232
-0.00207803
-0.0020737
-0.00206934
-0.00206494
-0.00206051
-0.00205605
-0.00205155
-0.00204703
-0.00204246
-0.00203787
-0.00203324
-0.00202858
-0.00202388
-0.00201916
-0.0020144
-0.00200961
-0.00200479
-0.00199994
-0.00199506
-0.00199015
-0.00198521
-0.00198023
-0.00197523
-0.0019702
-0.00196514
-0.00196004
-0.00195492
-0.00194977
-0.00194459
-0.00193939
-0.00193415
-0.00192889
-0.0019236
-0.00191828
-0.00191293
-0.00190756
-0.00190216
-0.00189673
-0.00189128
-0.0018858
-0.00188029
-0.00187476
-0.00186921
-0.00186362
-0.00185802
-0.00185239
-0.00184673
-0.00184105
-0.00183535
-0.00182962
-0.00182386
-0.00181809
-0.00181229
-0.00180647
-0.00180062
-0.00179476
-0.00178887
-0.00178296
-0.00177703
-0.00177107
-0.0017651
-0.0017591
-0.00175308
-0.00174704
-0.00174099
-0.00173491
-0.00172881
-0.00172269
-0.00171656
-0.0017104
-0.00170422
-0.00169803
-0.00169182
-0.00168559
-0.00167934
-0.00167308
-0.00166679
-0.00166049
-0.00165417
-0.00164784
-0.00164149
-0.00163512
-0.00162874
-0.00162234
-0.00161593
-0.0016095
-0.00160306
-0.0015966
-0.00159012
-0.00158364
-0.00157713
-0.00157062
-0.00156409
-0.00155755
-0.00155099
-0.00154442
-0.00153784
-0.00153125
-0.00152464
-0.00151803
-0.0015114
-0.00150476
-0.0014981
-0.00149144
-0.00148477
-0.00147809
-0.00147139
-0.00146469
-0.00145797
-0.00145125
-0.00144452
-0.00143778
-0.00143103
-0.00142427
-0.0014175
-0.00141073
-0.00140395
-0.00139716
-0.00139036
-0.00138355
-0.00137674
-0.00136992
-0.0013631
-0.00135627
-0.00134943
-0.00134259
-0.00133574
-0.00132889
-0.00132203
-0.00131517
-0.0013083
-0.00130143
-0.00129455
-0.00128767
-0.00128079
-0.00127391
-0.00126702
-0.00126012
-0.00125323
-0.00124633
-0.00123943
-0.00123253
-0.00122563
-0.00121872
-0.00121182
-0.00120491
-0.001198
-0.00119109
-0.00118418
-0.00117727
-0.00117036
-0.00116346
-0.00115655
-0.00114964
-0.00114273
-0.00113583
-0.00112892
-0.00112202
-0.00111512
-0.00110822
-0.00110132
-0.00109443
-0.00108754
-0.00108065
-0.00107376
-0.00106688
-0.00106
-0.00105313
-0.00104626
-0.00103939
-0.00103253
-0.00102567
-0.00101882
-0.00101197
-0.00100513
-0.000998293
-0.000991462
-0.000984637
-0.000977817
-0.000971004
-0.000964197
-0.000957397
-0.000950604
-0.000943818
-0.000937039
-0.000930268
-0.000923504
-0.000916749
-0.000910001
-0.000903262
-0.000896531
-0.000889808
-0.000883095
-0.00087639
-0.000869695
-0.000863009
-0.000856333
-0.000849667
-0.00084301
-0.000836364
-0.000829728
-0.000823103
-0.000816489
-0.000809885
-0.000803293
0.000796711
0.000790142
0.000783583
0.000777037
0.000770503
0.000763981
0.000757471
0.000750974
0.000744489
0.000738018
0.000731559
0.000725114
0.000718682
0.000712264
0.000705859
0.000699468
0.000693092
0.000686729
0.000680381
0.000674048
0.000667729
0.000661425
0.000655136
0.000648863
0.000642604
0.000636362
0.000630135
0.000623923
0.000617728
0.000611549
0.000605386
0.00059924
0.00059311
0.000586997
0.000580901
0.000574822
0.00056876
0.000562716
0.000556688
0.000550679
0.000544687
0.000538713
0.000532758
0.00052682
0.0005209
0.000515
0.000509117
0.000503253
0.000497409
0.000491583
0.000485776
0.000479988
0.00047422
0.000468472
0.000462742
0.000457033
0.000451343
0.000445674
0.000440024
0.000434395
0.000428786
0.000423198
0.00041763
0.000412082
0.000406556
0.00040105
0.000395566
0.000390102
0.00038466
0.000379239
0.00037384
0.000368462
0.000363106
0.000357771
0.000352458
0.000347168
0.000341899
0.000336653
0.000331428
0.000326226
0.000321047
0.00031589
0.000310756
0.000305644
0.000300555
0.000295489
0.000290446
0.000285426
0.000280429
0.000275456
0.000270506
0.000265579
0.000260675
0.000255795
0.000250939
0.000246107
0.000241298
0.000236513
0.000231752
0.000227015
0.000222302
0.000217613
0.000212948
0.000208308
0.000203692
0.0001991
0.000194533
0.00018999
0.000185472
0.000180979
0.00017651
0.000172066
0.000167646
0.000163252
0.000158882
0.000154538
0.000150218
0.000145923
0.000141654
0.00013741
0.00013319
0.000128996
0.000124828
0.000120684
0.000116567
0.000112474
0.000108407
0.000104365
0.000100349
9.63583e-05
9.23932e-05
8.84537e-05
8.45399e-05
8.06517e-05
7.67893e-05
7.29525e-05
6.91415e-05
6.53562e-05
6.15968e-05
5.78631e-05
5.41553e-05
5.04733e-05
4.68173e-05
4.31871e-05
3.95828e-05
3.60044e-05
3.24519e-05
2.89254e-05
2.54249e-05
2.19503e-05
1.85017e-05
1.50791e-05
1.16825e-05
8.31187e-06
4.96725e-06
1.64863e-06
-1.64398e-06
-4.91058e-06
-8.15117e-06
-1.13658e-05
-1.45543e-05
-1.77169e-05
-2.08535e-05
-2.39641e-05
-2.70487e-05
-3.01074e-05
-3.314e-05
-3.61467e-05
-3.91275e-05
-4.20824e-05
-4.50113e-05
-4.79143e-05
-5.07914e-05
-5.36427e-05
-5.64681e-05
-5.92677e-05
-6.20414e-05
-6.47894e-05
-6.75116e-05
-7.02081e-05
-7.28788e-05
-7.55239e-05
-7.81432e-05
-8.0737e-05
-8.33051e-05
-8.58476e-05
-8.83646e-05
-9.08561e-05
-9.33221e-05
-9.57626e-05
-9.81777e-05
-0.000100567
-0.000102932
-0.000105271
-0.000107585
-0.000109873
-0.000112137
-0.000114375
-0.000116588
-0.000118776
-0.000120939
-0.000123077
-0.000125191
-0.000127279
-0.000129342
-0.000131381
-0.000133395
-0.000135384
-0.000137349
-0.000139289
-0.000141205
-0.000143096
-0.000144963
-0.000146806
-0.000148624
-0.000150418
-0.000152187
-0.000153933
-0.000155655
-0.000157353
-0.000159026
-0.000160676
-0.000162302
-0.000163905
-0.000165484
-0.000167039
-0.000168571
-0.000170079
-0.000171564
-0.000173025
-0.000174464
-0.000175879
-0.000177271
-0.00017864
-0.000179986
-0.00018131
-0.00018261
-0.000183888
-0.000185143
-0.000186376
-0.000187586
-0.000188774
-0.00018994
-0.000191083
-0.000192204
-0.000193303
-0.000194381
-0.000195436
-0.000196469
-0.000197481
-0.000198471
-0.00019944
-0.000200387
-0.000201313
-0.000202218
-0.000203101
-0.000203964
-0.000204805
-0.000205625
-0.000206425
-0.000207204
-0.000207963
-0.0002087
-0.000209418
-0.000210115
-0.000210792
-0.000211449
-0.000212085
-0.000212702
-0.000213299
-0.000213876
-0.000214434
-0.000214972
-0.000215491
-0.00021599
-0.00021647
-0.000216931
-0.000217373
-0.000217796
-0.000218201
-0.000218586
-0.000218953
-0.000219302
-0.000219632
-0.000219944
-0.000220237
-0.000220513
-0.000220771
-0.000221011
-0.000221233
-0.000221437
-0.000221624
-0.000221794
-0.000221946
-0.000222082
-0.0002222
-0.000222301
-0.000222385
