# Pulseq sequence file
# Created by Python/GPI Lab

# Format of blocks:
#  #  D RF  GX  GY  GZ ADC
[BLOCKS]
   1  0  1   0   0   1  0
   2  0  0   2   3   4  0
   3  1  0   0   0   0  0
   4  0  2   0   0   1  0
   5  2  0   0   0   0  0
   6  0  0   5   0   0  1
   7  3  0   0   0   0  0
   8  0  1   0   0   1  0
   9  0  0   2   6   4  0
  10  1  0   0   0   0  0
  11  0  2   0   0   1  0
  12  2  0   0   0   0  0
  13  0  0   5   0   0  1
  14  3  0   0   0   0  0
  15  0  1   0   0   1  0
  16  0  0   2   7   4  0
  17  1  0   0   0   0  0
  18  0  2   0   0   1  0
  19  2  0   0   0   0  0
  20  0  0   5   0   0  1
  21  3  0   0   0   0  0
  22  0  1   0   0   1  0
  23  0  0   2   8   4  0
  24  1  0   0   0   0  0
  25  0  2   0   0   1  0
  26  2  0   0   0   0  0
  27  0  0   5   0   0  1
  28  3  0   0   0   0  0
  29  0  1   0   0   1  0
  30  0  0   2   9   4  0
  31  1  0   0   0   0  0
  32  0  2   0   0   1  0
  33  2  0   0   0   0  0
  34  0  0   5   0   0  1
  35  3  0   0   0   0  0
  36  0  1   0   0   1  0
  37  0  0   2  10   4  0
  38  1  0   0   0   0  0
  39  0  2   0   0   1  0
  40  2  0   0   0   0  0
  41  0  0   5   0   0  1
  42  3  0   0   0   0  0
  43  0  1   0   0   1  0
  44  0  0   2  11   4  0
  45  1  0   0   0   0  0
  46  0  2   0   0   1  0
  47  2  0   0   0   0  0
  48  0  0   5   0   0  1
  49  3  0   0   0   0  0
  50  0  1   0   0   1  0
  51  0  0   2  12   4  0
  52  1  0   0   0   0  0
  53  0  2   0   0   1  0
  54  2  0   0   0   0  0
  55  0  0   5   0   0  1
  56  3  0   0   0   0  0
  57  0  1   0   0   1  0
  58  0  0   2  13   4  0
  59  1  0   0   0   0  0
  60  0  2   0   0   1  0
  61  2  0   0   0   0  0
  62  0  0   5   0   0  1
  63  3  0   0   0   0  0
  64  0  1   0   0   1  0
  65  0  0   2  14   4  0
  66  1  0   0   0   0  0
  67  0  2   0   0   1  0
  68  2  0   0   0   0  0
  69  0  0   5   0   0  1
  70  3  0   0   0   0  0
  71  0  1   0   0   1  0
  72  0  0   2  15   4  0
  73  1  0   0   0   0  0
  74  0  2   0   0   1  0
  75  2  0   0   0   0  0
  76  0  0   5   0   0  1
  77  3  0   0   0   0  0
  78  0  1   0   0   1  0
  79  0  0   2  16   4  0
  80  1  0   0   0   0  0
  81  0  2   0   0   1  0
  82  2  0   0   0   0  0
  83  0  0   5   0   0  1
  84  3  0   0   0   0  0
  85  0  1   0   0   1  0
  86  0  0   2  17   4  0
  87  1  0   0   0   0  0
  88  0  2   0   0   1  0
  89  2  0   0   0   0  0
  90  0  0   5   0   0  1
  91  3  0   0   0   0  0
  92  0  1   0   0   1  0
  93  0  0   2  18   4  0
  94  1  0   0   0   0  0
  95  0  2   0   0   1  0
  96  2  0   0   0   0  0
  97  0  0   5   0   0  1
  98  3  0   0   0   0  0
  99  0  1   0   0   1  0
 100  0  0   2  19   4  0
 101  1  0   0   0   0  0
 102  0  2   0   0   1  0
 103  2  0   0   0   0  0
 104  0  0   5   0   0  1
 105  3  0   0   0   0  0
 106  0  1   0   0   1  0
 107  0  0   2  20   4  0
 108  1  0   0   0   0  0
 109  0  2   0   0   1  0
 110  2  0   0   0   0  0
 111  0  0   5   0   0  1
 112  3  0   0   0   0  0
 113  0  1   0   0   1  0
 114  0  0   2  21   4  0
 115  1  0   0   0   0  0
 116  0  2   0   0   1  0
 117  2  0   0   0   0  0
 118  0  0   5   0   0  1
 119  3  0   0   0   0  0
 120  0  1   0   0   1  0
 121  0  0   2  22   4  0
 122  1  0   0   0   0  0
 123  0  2   0   0   1  0
 124  2  0   0   0   0  0
 125  0  0   5   0   0  1
 126  3  0   0   0   0  0
 127  0  1   0   0   1  0
 128  0  0   2  23   4  0
 129  1  0   0   0   0  0
 130  0  2   0   0   1  0
 131  2  0   0   0   0  0
 132  0  0   5   0   0  1
 133  3  0   0   0   0  0
 134  0  1   0   0   1  0
 135  0  0   2  24   4  0
 136  1  0   0   0   0  0
 137  0  2   0   0   1  0
 138  2  0   0   0   0  0
 139  0  0   5   0   0  1
 140  3  0   0   0   0  0
 141  0  1   0   0   1  0
 142  0  0   2  25   4  0
 143  1  0   0   0   0  0
 144  0  2   0   0   1  0
 145  2  0   0   0   0  0
 146  0  0   5   0   0  1
 147  3  0   0   0   0  0
 148  0  1   0   0   1  0
 149  0  0   2  26   4  0
 150  1  0   0   0   0  0
 151  0  2   0   0   1  0
 152  2  0   0   0   0  0
 153  0  0   5   0   0  1
 154  3  0   0   0   0  0
 155  0  1   0   0   1  0
 156  0  0   2  27   4  0
 157  1  0   0   0   0  0
 158  0  2   0   0   1  0
 159  2  0   0   0   0  0
 160  0  0   5   0   0  1
 161  3  0   0   0   0  0
 162  0  1   0   0   1  0
 163  0  0   2  28   4  0
 164  1  0   0   0   0  0
 165  0  2   0   0   1  0
 166  2  0   0   0   0  0
 167  0  0   5   0   0  1
 168  3  0   0   0   0  0
 169  0  1   0   0   1  0
 170  0  0   2  29   4  0
 171  1  0   0   0   0  0
 172  0  2   0   0   1  0
 173  2  0   0   0   0  0
 174  0  0   5   0   0  1
 175  3  0   0   0   0  0
 176  0  1   0   0   1  0
 177  0  0   2  30   4  0
 178  1  0   0   0   0  0
 179  0  2   0   0   1  0
 180  2  0   0   0   0  0
 181  0  0   5   0   0  1
 182  3  0   0   0   0  0
 183  0  1   0   0   1  0
 184  0  0   2  31   4  0
 185  1  0   0   0   0  0
 186  0  2   0   0   1  0
 187  2  0   0   0   0  0
 188  0  0   5   0   0  1
 189  3  0   0   0   0  0
 190  0  1   0   0   1  0
 191  0  0   2  32   4  0
 192  1  0   0   0   0  0
 193  0  2   0   0   1  0
 194  2  0   0   0   0  0
 195  0  0   5   0   0  1
 196  3  0   0   0   0  0
 197  0  1   0   0   1  0
 198  0  0   2  33   4  0
 199  1  0   0   0   0  0
 200  0  2   0   0   1  0
 201  2  0   0   0   0  0
 202  0  0   5   0   0  1
 203  3  0   0   0   0  0
 204  0  1   0   0   1  0
 205  0  0   2  34   4  0
 206  1  0   0   0   0  0
 207  0  2   0   0   1  0
 208  2  0   0   0   0  0
 209  0  0   5   0   0  1
 210  3  0   0   0   0  0
 211  0  1   0   0   1  0
 212  0  0   2  35   4  0
 213  1  0   0   0   0  0
 214  0  2   0   0   1  0
 215  2  0   0   0   0  0
 216  0  0   5   0   0  1
 217  3  0   0   0   0  0
 218  0  1   0   0   1  0
 219  0  0   2  36   4  0
 220  1  0   0   0   0  0
 221  0  2   0   0   1  0
 222  2  0   0   0   0  0
 223  0  0   5   0   0  1
 224  3  0   0   0   0  0
 225  0  1   0   0   1  0
 226  0  0   2  37   4  0
 227  1  0   0   0   0  0
 228  0  2   0   0   1  0
 229  2  0   0   0   0  0
 230  0  0   5   0   0  1
 231  3  0   0   0   0  0
 232  0  1   0   0   1  0
 233  0  0   2  38   4  0
 234  1  0   0   0   0  0
 235  0  2   0   0   1  0
 236  2  0   0   0   0  0
 237  0  0   5   0   0  1
 238  3  0   0   0   0  0
 239  0  1   0   0   1  0
 240  0  0   2  39   4  0
 241  1  0   0   0   0  0
 242  0  2   0   0   1  0
 243  2  0   0   0   0  0
 244  0  0   5   0   0  1
 245  3  0   0   0   0  0
 246  0  1   0   0   1  0
 247  0  0   2  40   4  0
 248  1  0   0   0   0  0
 249  0  2   0   0   1  0
 250  2  0   0   0   0  0
 251  0  0   5   0   0  1
 252  3  0   0   0   0  0
 253  0  1   0   0   1  0
 254  0  0   2  41   4  0
 255  1  0   0   0   0  0
 256  0  2   0   0   1  0
 257  2  0   0   0   0  0
 258  0  0   5   0   0  1
 259  3  0   0   0   0  0
 260  0  1   0   0   1  0
 261  0  0   2  42   4  0
 262  1  0   0   0   0  0
 263  0  2   0   0   1  0
 264  2  0   0   0   0  0
 265  0  0   5   0   0  1
 266  3  0   0   0   0  0
 267  0  1   0   0   1  0
 268  0  0   2  43   4  0
 269  1  0   0   0   0  0
 270  0  2   0   0   1  0
 271  2  0   0   0   0  0
 272  0  0   5   0   0  1
 273  3  0   0   0   0  0
 274  0  1   0   0   1  0
 275  0  0   2  44   4  0
 276  1  0   0   0   0  0
 277  0  2   0   0   1  0
 278  2  0   0   0   0  0
 279  0  0   5   0   0  1
 280  3  0   0   0   0  0
 281  0  1   0   0   1  0
 282  0  0   2  45   4  0
 283  1  0   0   0   0  0
 284  0  2   0   0   1  0
 285  2  0   0   0   0  0
 286  0  0   5   0   0  1
 287  3  0   0   0   0  0
 288  0  1   0   0   1  0
 289  0  0   2  46   4  0
 290  1  0   0   0   0  0
 291  0  2   0   0   1  0
 292  2  0   0   0   0  0
 293  0  0   5   0   0  1
 294  3  0   0   0   0  0
 295  0  1   0   0   1  0
 296  0  0   2  47   4  0
 297  1  0   0   0   0  0
 298  0  2   0   0   1  0
 299  2  0   0   0   0  0
 300  0  0   5   0   0  1
 301  3  0   0   0   0  0
 302  0  1   0   0   1  0
 303  0  0   2  48   4  0
 304  1  0   0   0   0  0
 305  0  2   0   0   1  0
 306  2  0   0   0   0  0
 307  0  0   5   0   0  1
 308  3  0   0   0   0  0
 309  0  1   0   0   1  0
 310  0  0   2  49   4  0
 311  1  0   0   0   0  0
 312  0  2   0   0   1  0
 313  2  0   0   0   0  0
 314  0  0   5   0   0  1
 315  3  0   0   0   0  0
 316  0  1   0   0   1  0
 317  0  0   2  50   4  0
 318  1  0   0   0   0  0
 319  0  2   0   0   1  0
 320  2  0   0   0   0  0
 321  0  0   5   0   0  1
 322  3  0   0   0   0  0
 323  0  1   0   0   1  0
 324  0  0   2  51   4  0
 325  1  0   0   0   0  0
 326  0  2   0   0   1  0
 327  2  0   0   0   0  0
 328  0  0   5   0   0  1
 329  3  0   0   0   0  0
 330  0  1   0   0   1  0
 331  0  0   2  52   4  0
 332  1  0   0   0   0  0
 333  0  2   0   0   1  0
 334  2  0   0   0   0  0
 335  0  0   5   0   0  1
 336  3  0   0   0   0  0
 337  0  1   0   0   1  0
 338  0  0   2  53   4  0
 339  1  0   0   0   0  0
 340  0  2   0   0   1  0
 341  2  0   0   0   0  0
 342  0  0   5   0   0  1
 343  3  0   0   0   0  0
 344  0  1   0   0   1  0
 345  0  0   2  54   4  0
 346  1  0   0   0   0  0
 347  0  2   0   0   1  0
 348  2  0   0   0   0  0
 349  0  0   5   0   0  1
 350  3  0   0   0   0  0
 351  0  1   0   0   1  0
 352  0  0   2  55   4  0
 353  1  0   0   0   0  0
 354  0  2   0   0   1  0
 355  2  0   0   0   0  0
 356  0  0   5   0   0  1
 357  3  0   0   0   0  0
 358  0  1   0   0   1  0
 359  0  0   2  56   4  0
 360  1  0   0   0   0  0
 361  0  2   0   0   1  0
 362  2  0   0   0   0  0
 363  0  0   5   0   0  1
 364  3  0   0   0   0  0
 365  0  1   0   0   1  0
 366  0  0   2  57   4  0
 367  1  0   0   0   0  0
 368  0  2   0   0   1  0
 369  2  0   0   0   0  0
 370  0  0   5   0   0  1
 371  3  0   0   0   0  0
 372  0  1   0   0   1  0
 373  0  0   2  58   4  0
 374  1  0   0   0   0  0
 375  0  2   0   0   1  0
 376  2  0   0   0   0  0
 377  0  0   5   0   0  1
 378  3  0   0   0   0  0
 379  0  1   0   0   1  0
 380  0  0   2  59   4  0
[RF]
1      394.982 1 2 0 0
2      789.965 1 2 0 0

# Format of trapezoid gradients:
# id amplitude rise flat fall
# ..      Hz/m   us   us   us
[TRAP]
 1       533333 130 2500 130
 2      -250944  60 2380  60
 3      -204082  50 2400  50
 4      -288615  70 2360  70
 5       976562 230 1024 230
 6      -202487  50 2400  50
 7      -200893  50 2400  50
 8      -199298  50 2400  50
 9      -197704  50 2400  50
10      -196110  50 2400  50
11      -194515  50 2400  50
12      -192921  50 2400  50
13      -191327  50 2400  50
14      -189732  50 2400  50
15      -188138  50 2400  50
16      -186543  50 2400  50
17      -184949  50 2400  50
18      -183355  50 2400  50
19      -181760  50 2400  50
20      -180166  50 2400  50
21      -178571  50 2400  50
22      -176977  50 2400  50
23      -175383  50 2400  50
24      -173788  50 2400  50
25      -172194  50 2400  50
26      -169906  40 2420  40
27      -168318  40 2420  40
28      -166730  40 2420  40
29      -165142  40 2420  40
30      -163554  40 2420  40
31      -161966  40 2420  40
32      -160379  40 2420  40
33      -158791  40 2420  40
34      -157203  40 2420  40
35      -155615  40 2420  40
36      -154027  40 2420  40
37      -152439  40 2420  40
38      -150851  40 2420  40
39      -149263  40 2420  40
40      -147675  40 2420  40
41      -146087  40 2420  40
42      -144499  40 2420  40
43      -142912  40 2420  40
44      -141324  40 2420  40
45      -139736  40 2420  40
46      -138148  40 2420  40
47      -136560  40 2420  40
48      -134972  40 2420  40
49      -133384  40 2420  40
50      -131796  40 2420  40
51      -130208  40 2420  40
52      -128620  40 2420  40
53      -126518  30 2440  30
54      -124937  30 2440  30
55      -123355  30 2440  30
56      -121774  30 2440  30
57      -120192  30 2440  30
58      -118611  30 2440  30
59      -117029  30 2440  30
60      -115448  30 2440  30
61      -113866  30 2440  30
62      -112285  30 2440  30
63      -110703  30 2440  30
64      -109122  30 2440  30
65      -107540  30 2440  30
66      -105959  30 2440  30
67      -104378  30 2440  30
68      -102796  30 2440  30
69      -101215  30 2440  30
70     -99633.1  30 2440  30
71     -98051.6  30 2440  30
72     -96470.1  30 2440  30
73     -94888.7  30 2440  30
74     -93307.2  30 2440  30
75     -91725.7  30 2440  30
76     -90144.2  30 2440  30
77     -88562.8  30 2440  30
78     -86981.3  30 2440  30
79     -85055.4  20 2460  20
80     -83480.3  20 2460  20
81     -81905.2  20 2460  20
82     -80330.1  20 2460  20
83       -78755  20 2460  20
84     -77179.9  20 2460  20
85     -75604.8  20 2460  20
86     -74029.7  20 2460  20
87     -72454.6  20 2460  20
88     -70879.5  20 2460  20
89     -69304.4  20 2460  20
90     -67729.3  20 2460  20
91     -66154.2  20 2460  20
92     -64579.1  20 2460  20
93       -63004  20 2460  20
94     -61428.9  20 2460  20
95     -59853.8  20 2460  20
96     -58278.7  20 2460  20
97     -56703.6  20 2460  20
98     -55128.5  20 2460  20
99     -53553.4  20 2460  20
100     -51978.3  20 2460  20
101     -50403.2  20 2460  20
102     -48828.1  20 2460  20
103       -47253  20 2460  20
104     -45677.9  20 2460  20
105     -44102.8  20 2460  20
106     -42356.9  10 2480  10
107     -40788.2  10 2480  10
108     -39219.4  10 2480  10
109     -37650.6  10 2480  10
110     -36081.8  10 2480  10
111     -34513.1  10 2480  10
112     -32944.3  10 2480  10
113     -31375.5  10 2480  10
114     -29806.7  10 2480  10
115       -28238  10 2480  10
116     -26669.2  10 2480  10
117     -25100.4  10 2480  10
118     -23531.6  10 2480  10
119     -21962.9  10 2480  10
120     -20394.1  10 2480  10
121     -18825.3  10 2480  10
122     -17256.5  10 2480  10
123     -15687.8  10 2480  10
124       -14119  10 2480  10
125     -12550.2  10 2480  10
126     -10981.4  10 2480  10
127     -9412.65  10 2480  10
128     -7843.88  10 2480  10
129      -6275.1  10 2480  10
130     -4706.33  10 2480  10
131     -3137.55  10 2480  10
132     -1568.78  10 2480  10
133            0   0 2500   0
134      1568.78  10 2480  10
135      3137.55  10 2480  10
136      4706.33  10 2480  10
137       6275.1  10 2480  10
138      7843.88  10 2480  10
139      9412.65  10 2480  10
140      10981.4  10 2480  10
141      12550.2  10 2480  10
142        14119  10 2480  10
143      15687.8  10 2480  10
144      17256.5  10 2480  10
145      18825.3  10 2480  10
146      20394.1  10 2480  10
147      21962.9  10 2480  10
148      23531.6  10 2480  10
149      25100.4  10 2480  10
150      26669.2  10 2480  10
151        28238  10 2480  10
152      29806.7  10 2480  10
153      31375.5  10 2480  10
154      32944.3  10 2480  10
155      34513.1  10 2480  10
156      36081.8  10 2480  10
157      37650.6  10 2480  10
158      39219.4  10 2480  10
159      40788.2  10 2480  10
160      42356.9  10 2480  10
161      44102.8  20 2460  20
162      45677.9  20 2460  20
163        47253  20 2460  20
164      48828.1  20 2460  20
165      50403.2  20 2460  20
166      51978.3  20 2460  20
167      53553.4  20 2460  20
168      55128.5  20 2460  20
169      56703.6  20 2460  20
170      58278.7  20 2460  20
171      59853.8  20 2460  20
172      61428.9  20 2460  20
173        63004  20 2460  20
174      64579.1  20 2460  20
175      66154.2  20 2460  20
176      67729.3  20 2460  20
177      69304.4  20 2460  20
178      70879.5  20 2460  20
179      72454.6  20 2460  20
180      74029.7  20 2460  20
181      75604.8  20 2460  20
182      77179.9  20 2460  20
183        78755  20 2460  20
184      80330.1  20 2460  20
185      81905.2  20 2460  20
186      83480.3  20 2460  20
187      85055.4  20 2460  20
188      86981.3  30 2440  30
189      88562.8  30 2440  30
190      90144.2  30 2440  30
191      91725.7  30 2440  30
192      93307.2  30 2440  30
193      94888.7  30 2440  30
194      96470.1  30 2440  30
195      98051.6  30 2440  30
196      99633.1  30 2440  30
197       101215  30 2440  30
198       102796  30 2440  30
199       104378  30 2440  30
200       105959  30 2440  30
201       107540  30 2440  30
202       109122  30 2440  30
203       110703  30 2440  30
204       112285  30 2440  30
205       113866  30 2440  30
206       115448  30 2440  30
207       117029  30 2440  30
208       118611  30 2440  30
209       120192  30 2440  30
210       121774  30 2440  30
211       123355  30 2440  30
212       124937  30 2440  30
213       126518  30 2440  30
214       128620  40 2420  40
215       130208  40 2420  40
216       131796  40 2420  40
217       133384  40 2420  40
218       134972  40 2420  40
219       136560  40 2420  40
220       138148  40 2420  40
221       139736  40 2420  40
222       141324  40 2420  40
223       142912  40 2420  40
224       144499  40 2420  40
225       146087  40 2420  40
226       147675  40 2420  40
227       149263  40 2420  40
228       150851  40 2420  40
229       152439  40 2420  40
230       154027  40 2420  40
231       155615  40 2420  40
232       157203  40 2420  40
233       158791  40 2420  40
234       160379  40 2420  40
235       161966  40 2420  40
236       163554  40 2420  40
237       165142  40 2420  40
238       166730  40 2420  40
239       168318  40 2420  40
240       169906  40 2420  40
241       172194  50 2400  50
242       173788  50 2400  50
243       175383  50 2400  50
244       176977  50 2400  50
245       178571  50 2400  50
246       180166  50 2400  50
247       181760  50 2400  50
248       183355  50 2400  50
249       184949  50 2400  50
250       186543  50 2400  50
251       188138  50 2400  50
252       189732  50 2400  50
253       191327  50 2400  50
254       192921  50 2400  50
255       194515  50 2400  50
256       196110  50 2400  50
257       197704  50 2400  50
258       199298  50 2400  50
259       200893  50 2400  50
260       202487  50 2400  50

# Format of ADC events:
# id num dwell delay freq phase
# ..  ..    ns    us   Hz   rad
[ADC]
 1 256   4000 230 0 0

# Format of delays:
# id delay (us)
[DELAYS]
1 43540
2 47938
3 1898516

# Sequence Shapes
[SHAPES]

shape_id 1
num_samples 2630
0
0
130
2.40675e-08
4.69153e-08
7.74239e-08
1.15615e-07
1.6151e-07
2.15129e-07
2.76492e-07
3.45619e-07
4.22527e-07
5.07234e-07
5.99759e-07
7.00117e-07
8.08325e-07
9.24397e-07
1.04835e-06
1.18019e-06
1.31995e-06
1.46762e-06
1.62322e-06
1.78676e-06
1.95826e-06
2.13772e-06
2.32515e-06
2.52057e-06
2.72397e-06
2.93537e-06
3.15477e-06
3.38218e-06
3.6176e-06
3.86104e-06
4.1125e-06
4.37198e-06
4.6395e-06
4.91504e-06
5.19861e-06
5.49021e-06
5.78984e-06
6.09749e-06
6.41318e-06
6.73688e-06
7.06861e-06
7.40835e-06
7.75611e-06
8.11187e-06
8.47563e-06
8.84738e-06
9.22712e-06
9.61483e-06
1.00105e-05
1.04142e-05
1.08257e-05
1.12453e-05
1.16727e-05
1.21081e-05
1.25513e-05
1.30025e-05
1.34615e-05
1.39283e-05
1.4403e-05
1.48855e-05
1.53759e-05
1.5874e-05
1.63798e-05
1.68934e-05
1.74148e-05
1.79438e-05
1.84805e-05
1.90249e-05
1.95769e-05
2.01365e-05
2.07037e-05
2.12784e-05
2.18607e-05
2.24505e-05
2.30477e-05
2.36524e-05
2.42646e-05
2.48841e-05
2.55109e-05
2.61451e-05
2.67865e-05
2.74353e-05
2.80912e-05
2.87543e-05
2.94246e-05
3.0102e-05
3.07865e-05
3.1478e-05
3.21765e-05
3.28819e-05
3.35943e-05
3.43136e-05
3.50397e-05
3.57726e-05
3.65123e-05
3.72586e-05
3.80117e-05
3.87713e-05
3.95376e-05
4.03103e-05
4.10896e-05
4.18752e-05
4.26673e-05
4.34657e-05
4.42703e-05
4.50812e-05
4.58983e-05
4.67215e-05
4.75508e-05
4.83861e-05
4.92273e-05
5.00745e-05
5.09275e-05
5.17864e-05
5.26509e-05
5.35212e-05
5.4397e-05
5.52785e-05
5.61654e-05
5.70578e-05
5.79555e-05
5.88586e-05
5.97669e-05
6.06804e-05
6.1599e-05
6.25227e-05
6.34514e-05
6.4385e-05
6.53235e-05
6.62668e-05
6.72147e-05
6.81674e-05
6.91246e-05
7.00863e-05
7.10525e-05
7.2023e-05
7.29979e-05
7.39769e-05
7.49601e-05
7.59474e-05
7.69387e-05
7.79339e-05
7.89329e-05
7.99358e-05
8.09423e-05
8.19524e-05
8.2966e-05
8.39831e-05
8.50036e-05
8.60273e-05
8.70543e-05
8.80844e-05
8.91175e-05
9.01536e-05
9.11925e-05
9.22343e-05
9.32788e-05
9.43258e-05
9.53754e-05
9.64275e-05
9.74819e-05
9.85385e-05
9.95974e-05
0.000100658
0.000101721
0.000102786
0.000103853
0.000104921
0.000105991
0.000107063
0.000108136
0.00010921
0.000110285
0.000111362
0.00011244
0.000113519
0.000114598
0.000115679
0.00011676
0.000117842
0.000118924
0.000120006
0.000121089
0.000122172
0.000123255
0.000124338
0.000125421
0.000126503
0.000127586
0.000128668
0.000129749
0.00013083
0.00013191
0.000132989
0.000134067
0.000135144
0.00013622
0.000137294
0.000138367
0.000139439
0.000140509
0.000141577
0.000142644
0.000143708
0.000144771
0.000145831
0.000146889
0.000147945
0.000148998
0.000150049
0.000151097
0.000152142
0.000153184
0.000154223
0.000155259
0.000156292
0.000157321
0.000158347
0.000159369
0.000160387
0.000161401
0.000162412
0.000163418
0.00016442
0.000165418
0.000166412
0.000167401
0.000168385
0.000169364
0.000170338
0.000171308
0.000172272
0.000173231
0.000174185
0.000175133
0.000176075
0.000177012
0.000177942
0.000178867
0.000179786
0.000180698
0.000181604
0.000182504
0.000183397
0.000184283
0.000185162
0.000186035
0.0001869
0.000187758
0.000188609
0.000189452
0.000190288
0.000191116
0.000191936
0.000192748
0.000193552
0.000194348
0.000195136
0.000195915
0.000196686
0.000197448
0.000198201
0.000198945
0.00019968
0.000200406
0.000201122
0.000201829
0.000202527
0.000203215
0.000203893
0.000204561
0.000205219
0.000205866
0.000206504
0.000207131
0.000207747
0.000208353
0.000208948
0.000209532
0.000210105
0.000210667
0.000211218
0.000211757
0.000212284
0.0002128
0.000213304
0.000213796
0.000214276
0.000214744
0.0002152
0.000215643
0.000216074
0.000216492
0.000216897
0.000217289
0.000217668
0.000218034
0.000218387
0.000218727
0.000219052
0.000219365
0.000219663
0.000219948
0.000220218
0.000220475
0.000220717
0.000220945
0.000221158
0.000221357
0.000221541
0.00022171
0.000221864
0.000222003
0.000222127
0.000222236
0.000222329
0.000222406
0.000222468
0.000222514
0.000222545
0.000222559
0.000222559
0
0.000222539
0.000222504
0.000222453
0.000222385
0.000222301
0.0002222
0.000222082
0.000221946
0.000221794
0.000221624
0.000221437
0.000221233
0.000221011
0.000220771
0.000220513
0.000220237
0.000219944
0.000219632
0.000219302
0.000218953
0.000218586
0.000218201
0.000217796
0.000217373
0.000216931
0.00021647
0.00021599
0.000215491
0.000214972
0.000214434
0.000213876
0.000213299
0.000212702
0.000212085
0.000211449
0.000210792
0.000210115
0.000209418
0.0002087
0.000207963
0.000207204
0.000206425
0.000205625
0.000204805
0.000203964
0.000203101
0.000202218
0.000201313
0.000200387
0.00019944
0.000198471
0.000197481
0.000196469
0.000195436
0.000194381
0.000193303
0.000192204
0.000191083
0.00018994
0.000188774
0.000187586
0.000186376
0.000185143
0.000183888
0.00018261
0.00018131
0.000179986
0.00017864
0.000177271
0.000175879
0.000174464
0.000173025
0.000171564
0.000170079
0.000168571
0.000167039
0.000165484
0.000163905
0.000162302
0.000160676
0.000159026
0.000157353
0.000155655
0.000153933
0.000152187
0.000150418
0.000148624
0.000146806
0.000144963
0.000143096
0.000141205
0.000139289
0.000137349
0.000135384
0.000133395
0.000131381
0.000129342
0.000127279
0.000125191
0.000123077
0.000120939
0.000118776
0.000116588
0.000114375
0.000112137
0.000109873
0.000107585
0.000105271
0.000102932
0.000100567
9.81777e-05
9.57626e-05
9.33221e-05
9.08561e-05
8.83646e-05
8.58476e-05
8.33051e-05
8.0737e-05
7.81432e-05
7.55239e-05
7.28788e-05
7.02081e-05
6.75116e-05
6.47894e-05
6.20414e-05
5.92677e-05
5.64681e-05
5.36427e-05
5.07914e-05
4.79143e-05
4.50113e-05
4.20824e-05
3.91275e-05
3.61467e-05
3.314e-05
3.01074e-05
2.70487e-05
2.39641e-05
2.08535e-05
1.77169e-05
1.45543e-05
1.13658e-05
8.15117e-06
4.91058e-06
1.64398e-06
-1.64863e-06
-4.96725e-06
-8.31187e-06
-1.16825e-05
-1.50791e-05
-1.85017e-05
-2.19503e-05
-2.54249e-05
-2.89254e-05
-3.24519e-05
-3.60044e-05
-3.95828e-05
-4.31871e-05
-4.68173e-05
-5.04733e-05
-5.41553e-05
-5.78631e-05
-6.15968e-05
-6.53562e-05
-6.91415e-05
-7.29525e-05
-7.67893e-05
-8.06517e-05
-8.45399e-05
-8.84537e-05
-9.23932e-05
-9.63583e-05
-0.000100349
-0.000104365
-0.000108407
-0.000112474
-0.000116567
-0.000120684
-0.000124828
-0.000128996
-0.00013319
-0.00013741
-0.000141654
-0.000145923
-0.000150218
-0.000154538
-0.000158882
-0.000163252
-0.000167646
-0.000172066
-0.00017651
-0.000180979
-0.000185472
-0.00018999
-0.000194533
-0.0001991
-0.000203692
-0.000208308
-0.000212948
-0.000217613
-0.000222302
-0.000227015
-0.000231752
-0.000236513
-0.000241298
-0.000246107
-0.000250939
-0.000255795
-0.000260675
-0.000265579
-0.000270506
-0.000275456
-0.000280429
-0.000285426
-0.000290446
-0.000295489
-0.000300555
-0.000305644
-0.000310756
-0.00031589
-0.000321047
-0.000326226
-0.000331428
-0.000336653
-0.000341899
-0.000347168
-0.000352458
-0.000357771
-0.000363106
-0.000368462
-0.00037384
-0.000379239
-0.00038466
-0.000390102
-0.000395566
-0.00040105
-0.000406556
-0.000412082
-0.00041763
-0.000423198
-0.000428786
-0.000434395
-0.000440024
-0.000445674
-0.000451343
-0.000457033
-0.000462742
-0.000468472
-0.00047422
-0.000479988
-0.000485776
-0.000491583
-0.000497409
-0.000503253
-0.000509117
-0.000515
-0.0005209
-0.00052682
-0.000532758
-0.000538713
-0.000544687
-0.000550679
-0.000556688
-0.000562716
-0.00056876
-0.000574822
-0.000580901
-0.000586997
-0.00059311
-0.00059924
-0.000605386
-0.000611549
-0.000617728
-0.000623923
-0.000630135
-0.000636362
-0.000642604
-0.000648863
-0.000655136
-0.000661425
-0.000667729
-0.000674048
-0.000680381
-0.000686729
-0.000693092
-0.000699468
-0.000705859
-0.000712264
-0.000718682
-0.000725114
-0.000731559
-0.000738018
-0.000744489
-0.000750974
-0.000757471
-0.000763981
-0.000770503
-0.000777037
-0.000783583
-0.000790142
-0.000796711
0.000803293
0.000809885
0.000816489
0.000823103
0.000829728
0.000836364
0.00084301
0.000849667
0.000856333
0.000863009
0.000869695
0.00087639
0.000883095
0.000889808
0.000896531
0.000903262
0.000910001
0.000916749
0.000923504
0.000930268
0.000937039
0.000943818
0.000950604
0.000957397
0.000964197
0.000971004
0.000977817
0.000984637
0.000991462
0.000998293
0.00100513
0.00101197
0.00101882
0.00102567
0.00103253
0.00103939
0.00104626
0.00105313
0.00106
0.00106688
0.00107376
0.00108065
0.00108754
0.00109443
0.00110132
0.00110822
0.00111512
0.00112202
0.00112892
0.00113583
0.00114273
0.00114964
0.00115655
0.00116346
0.00117036
0.00117727
0.00118418
0.00119109
0.001198
0.00120491
0.00121182
0.00121872
0.00122563
0.00123253
0.00123943
0.00124633
0.00125323
0.00126012
0.00126702
0.00127391
0.00128079
0.00128767
0.00129455
0.00130143
0.0013083
0.00131517
0.00132203
0.00132889
0.00133574
0.00134259
0.00134943
0.00135627
0.0013631
0.00136992
0.00137674
0.00138355
0.00139036
0.00139716
0.00140395
0.00141073
0.0014175
0.00142427
0.00143103
0.00143778
0.00144452
0.00145125
0.00145797
0.00146469
0.00147139
0.00147809
0.00148477
0.00149144
0.0014981
0.00150476
0.0015114
0.00151803
0.00152464
0.00153125
0.00153784
0.00154442
0.00155099
0.00155755
0.00156409
0.00157062
0.00157713
0.00158364
0.00159012
0.0015966
0.00160306
0.0016095
0.00161593
0.00162234
0.00162874
0.00163512
0.00164149
0.00164784
0.00165417
0.00166049
0.00166679
0.00167308
0.00167934
0.00168559
0.00169182
0.00169803
0.00170422
0.0017104
0.00171656
0.00172269
0.00172881
0.00173491
0.00174099
0.00174704
0.00175308
0.0017591
0.0017651
0.00177107
0.00177703
0.00178296
0.00178887
0.00179476
0.00180062
0.00180647
0.00181229
0.00181809
0.00182386
0.00182962
0.00183535
0.00184105
0.00184673
0.00185239
0.00185802
0.00186362
0.00186921
0.00187476
0.00188029
0.0018858
0.00189128
0.00189673
0.00190216
0.00190756
0.00191293
0.00191828
0.0019236
0.00192889
0.00193415
0.00193939
0.00194459
0.00194977
0.00195492
0.00196004
0.00196514
0.0019702
0.00197523
0.00198023
0.00198521
0.00199015
0.00199506
0.00199994
0.00200479
0.00200961
0.0020144
0.00201916
0.00202388
0.00202858
0.00203324
0.00203787
0.00204246
0.00204703
0.00205155
0.00205605
0.00206051
0.00206494
0.00206934
0.0020737
0.00207803
0.00208232
0.00208658
0.0020908
0.00209499
0.00209914
0.00210326
0.00210734
0.00211138
0.00211539
0.00211936
0.0021233
0.0021272
0.00213106
0.00213489
0.00213868
0.00214243
0.00214614
0.00214981
0.00215345
0.00215705
0.00216061
0.00216413
0.00216761
0.00217106
0.00217446
0.00217782
0.00218115
0.00218443
0.00218768
0.00219089
0.00219405
0.00219717
0.00220026
0.0022033
0.0022063
0.00220926
0.00221218
0.00221506
0.0022179
0.00222069
0.00222345
0.00222616
0.00222882
0.00223145
0.00223403
0.00223657
0.00223907
0.00224152
0.00224393
0.0022463
0.00224862
0.0022509
0.00225314
0.00225533
0.00225748
0.00225958
0.00226164
0.00226365
0.00226562
0.00226755
0.00226942
0.00227126
0.00227305
0.00227479
0.00227649
0.00227814
0.00227974
0.0022813
0.00228281
0.00228428
0.0022857
0.00228707
0.0022884
0.00228968
0.00229091
0.0022921
0.00229324
0.00229433
0.00229537
0.00229637
0.00229732
0.00229822
0.00229907
0.00229988
0.00230063
0.00230134
0.002302
0.00230261
0.00230318
0.00230369
0.00230416
0.00230458
0.00230494
0.00230526
0.00230553
0.00230575
0.00230592
0.00230605
0.00230612
0.00230614
0.00230611
0.00230604
0.00230591
0.00230573
0.00230551
0.00230523
0.0023049
0.00230453
0.0023041
0.00230362
0.00230309
0.00230252
0.00230189
0.00230121
0.00230048
0.0022997
0.00229886
0.00229798
0.00229705
0.00229606
0.00229502
0.00229394
0.0022928
0.00229161
0.00229037
0.00228908
0.00228773
0.00228634
0.00228489
0.00228339
0.00228184
0.00228024
0.00227859
0.00227689
0.00227513
0.00227332
0.00227146
0.00226955
0.00226759
0.00226557
0.00226351
0.00226139
0.00225922
0.002257
0.00225472
0.0022524
0.00225002
0.00224759
0.00224511
0.00224258
0.00223999
0.00223735
0.00223466
0.00223192
0.00222913
0.00222629
0.00222339
0.00222044
0.00221744
0.00221439
0.00221128
0.00220813
0.00220492
0.00220166
0.00219835
0.00219498
0.00219157
0.0021881
0.00218458
0.00218101
0.00217739
0.00217371
0.00216999
0.00216621
0.00216238
0.0021585
0.00215457
0.00215059
0.00214655
0.00214247
0.00213833
0.00213414
0.0021299
0.00212561
0.00212127
0.00211688
0.00211244
0.00210794
0.0021034
