# Pulseq sequence file
# Created by MATLAB mr toolbox

# Format of blocks:
#  #  D RF  GX  GY  GZ ADC
[BLOCKS]
   1  0  1   0   0   1  0
   2  0  0   2   3   4  0
   3  1  0   0   0   0  0
   4  0  0   5   0   0  1
   5  2  0   0   0   0  0
   6  0  0   0   0   6  0
   7  3  0   0   0   0  0
   8  0  1   0   0   1  0
   9  0  0   2   7   4  0
  10  1  0   0   0   0  0
  11  0  0   5   0   0  1
  12  2  0   0   0   0  0
  13  0  0   0   0   6  0
  14  3  0   0   0   0  0
  15  0  1   0   0   1  0
  16  0  0   2   8   4  0
  17  1  0   0   0   0  0
  18  0  0   5   0   0  1
  19  2  0   0   0   0  0
  20  0  0   0   0   6  0
  21  3  0   0   0   0  0
  22  0  1   0   0   1  0
  23  0  0   2   9   4  0
  24  1  0   0   0   0  0
  25  0  0   5   0   0  1
  26  2  0   0   0   0  0
  27  0  0   0   0   6  0
  28  3  0   0   0   0  0
  29  0  1   0   0   1  0
  30  0  0   2  10   4  0
  31  1  0   0   0   0  0
  32  0  0   5   0   0  1
  33  2  0   0   0   0  0
  34  0  0   0   0   6  0
  35  3  0   0   0   0  0
  36  0  1   0   0   1  0
  37  0  0   2  11   4  0
  38  1  0   0   0   0  0
  39  0  0   5   0   0  1
  40  2  0   0   0   0  0
  41  0  0   0   0   6  0
  42  3  0   0   0   0  0
  43  0  1   0   0   1  0
  44  0  0   2  12   4  0
  45  1  0   0   0   0  0
  46  0  0   5   0   0  1
  47  2  0   0   0   0  0
  48  0  0   0   0   6  0
  49  3  0   0   0   0  0
  50  0  1   0   0   1  0
  51  0  0   2  13   4  0
  52  1  0   0   0   0  0
  53  0  0   5   0   0  1
  54  2  0   0   0   0  0
  55  0  0   0   0   6  0
  56  3  0   0   0   0  0
  57  0  1   0   0   1  0
  58  0  0   2  14   4  0
  59  1  0   0   0   0  0
  60  0  0   5   0   0  1
  61  2  0   0   0   0  0
  62  0  0   0   0   6  0
  63  3  0   0   0   0  0
  64  0  1   0   0   1  0
  65  0  0   2  15   4  0
  66  1  0   0   0   0  0
  67  0  0   5   0   0  1
  68  2  0   0   0   0  0
  69  0  0   0   0   6  0
  70  3  0   0   0   0  0
  71  0  1   0   0   1  0
  72  0  0   2  16   4  0
  73  1  0   0   0   0  0
  74  0  0   5   0   0  1
  75  2  0   0   0   0  0
  76  0  0   0   0   6  0
  77  3  0   0   0   0  0
  78  0  1   0   0   1  0
  79  0  0   2  17   4  0
  80  1  0   0   0   0  0
  81  0  0   5   0   0  1
  82  2  0   0   0   0  0
  83  0  0   0   0   6  0
  84  3  0   0   0   0  0
  85  0  1   0   0   1  0
  86  0  0   2  18   4  0
  87  1  0   0   0   0  0
  88  0  0   5   0   0  1
  89  2  0   0   0   0  0
  90  0  0   0   0   6  0
  91  3  0   0   0   0  0
  92  0  1   0   0   1  0
  93  0  0   2  19   4  0
  94  1  0   0   0   0  0
  95  0  0   5   0   0  1
  96  2  0   0   0   0  0
  97  0  0   0   0   6  0
  98  3  0   0   0   0  0
  99  0  1   0   0   1  0
 100  0  0   2  20   4  0
 101  1  0   0   0   0  0
 102  0  0   5   0   0  1
 103  2  0   0   0   0  0
 104  0  0   0   0   6  0
 105  3  0   0   0   0  0
 106  0  1   0   0   1  0
 107  0  0   2  21   4  0
 108  1  0   0   0   0  0
 109  0  0   5   0   0  1
 110  2  0   0   0   0  0
 111  0  0   0   0   6  0
 112  3  0   0   0   0  0
 113  0  1   0   0   1  0
 114  0  0   2  22   4  0
 115  1  0   0   0   0  0
 116  0  0   5   0   0  1
 117  2  0   0   0   0  0
 118  0  0   0   0   6  0
 119  3  0   0   0   0  0
 120  0  1   0   0   1  0
 121  0  0   2  23   4  0
 122  1  0   0   0   0  0
 123  0  0   5   0   0  1
 124  2  0   0   0   0  0
 125  0  0   0   0   6  0
 126  3  0   0   0   0  0
 127  0  1   0   0   1  0
 128  0  0   2  24   4  0
 129  1  0   0   0   0  0
 130  0  0   5   0   0  1
 131  2  0   0   0   0  0
 132  0  0   0   0   6  0
 133  3  0   0   0   0  0
 134  0  1   0   0   1  0
 135  0  0   2  25   4  0
 136  1  0   0   0   0  0
 137  0  0   5   0   0  1
 138  2  0   0   0   0  0
 139  0  0   0   0   6  0
 140  3  0   0   0   0  0
 141  0  1   0   0   1  0
 142  0  0   2  26   4  0
 143  1  0   0   0   0  0
 144  0  0   5   0   0  1
 145  2  0   0   0   0  0
 146  0  0   0   0   6  0
 147  3  0   0   0   0  0
 148  0  1   0   0   1  0
 149  0  0   2  27   4  0
 150  1  0   0   0   0  0
 151  0  0   5   0   0  1
 152  2  0   0   0   0  0
 153  0  0   0   0   6  0
 154  3  0   0   0   0  0
 155  0  1   0   0   1  0
 156  0  0   2  28   4  0
 157  1  0   0   0   0  0
 158  0  0   5   0   0  1
 159  2  0   0   0   0  0
 160  0  0   0   0   6  0
 161  3  0   0   0   0  0
 162  0  1   0   0   1  0
 163  0  0   2  29   4  0
 164  1  0   0   0   0  0
 165  0  0   5   0   0  1
 166  2  0   0   0   0  0
 167  0  0   0   0   6  0
 168  3  0   0   0   0  0
 169  0  1   0   0   1  0
 170  0  0   2  30   4  0
 171  1  0   0   0   0  0
 172  0  0   5   0   0  1
 173  2  0   0   0   0  0
 174  0  0   0   0   6  0
 175  3  0   0   0   0  0
 176  0  1   0   0   1  0
 177  0  0   2  31   4  0
 178  1  0   0   0   0  0
 179  0  0   5   0   0  1
 180  2  0   0   0   0  0
 181  0  0   0   0   6  0
 182  3  0   0   0   0  0
 183  0  1   0   0   1  0
 184  0  0   2  32   4  0
 185  1  0   0   0   0  0
 186  0  0   5   0   0  1
 187  2  0   0   0   0  0
 188  0  0   0   0   6  0
 189  3  0   0   0   0  0
 190  0  1   0   0   1  0
 191  0  0   2  33   4  0
 192  1  0   0   0   0  0
 193  0  0   5   0   0  1
 194  2  0   0   0   0  0
 195  0  0   0   0   6  0
 196  3  0   0   0   0  0
 197  0  1   0   0   1  0
 198  0  0   2  34   4  0
 199  1  0   0   0   0  0
 200  0  0   5   0   0  1
 201  2  0   0   0   0  0
 202  0  0   0   0   6  0
 203  3  0   0   0   0  0
 204  0  1   0   0   1  0
 205  0  0   2  35   4  0
 206  1  0   0   0   0  0
 207  0  0   5   0   0  1
 208  2  0   0   0   0  0
 209  0  0   0   0   6  0
 210  3  0   0   0   0  0
 211  0  1   0   0   1  0
 212  0  0   2  36   4  0
 213  1  0   0   0   0  0
 214  0  0   5   0   0  1
 215  2  0   0   0   0  0
 216  0  0   0   0   6  0
 217  3  0   0   0   0  0
 218  0  1   0   0   1  0
 219  0  0   2  37   4  0
 220  1  0   0   0   0  0
 221  0  0   5   0   0  1
 222  2  0   0   0   0  0
 223  0  0   0   0   6  0
 224  3  0   0   0   0  0
 225  0  1   0   0   1  0
 226  0  0   2  38   4  0
 227  1  0   0   0   0  0
 228  0  0   5   0   0  1
 229  2  0   0   0   0  0
 230  0  0   0   0   6  0
 231  3  0   0   0   0  0
 232  0  1   0   0   1  0
 233  0  0   2  39   4  0
 234  1  0   0   0   0  0
 235  0  0   5   0   0  1
 236  2  0   0   0   0  0
 237  0  0   0   0   6  0
 238  3  0   0   0   0  0
 239  0  1   0   0   1  0
 240  0  0   2  40   4  0
 241  1  0   0   0   0  0
 242  0  0   5   0   0  1
 243  2  0   0   0   0  0
 244  0  0   0   0   6  0
 245  3  0   0   0   0  0
 246  0  1   0   0   1  0
 247  0  0   2  41   4  0
 248  1  0   0   0   0  0
 249  0  0   5   0   0  1
 250  2  0   0   0   0  0
 251  0  0   0   0   6  0
 252  3  0   0   0   0  0
 253  0  1   0   0   1  0
 254  0  0   2  42   4  0
 255  1  0   0   0   0  0
 256  0  0   5   0   0  1
 257  2  0   0   0   0  0
 258  0  0   0   0   6  0
 259  3  0   0   0   0  0
 260  0  1   0   0   1  0
 261  0  0   2  43   4  0
 262  1  0   0   0   0  0
 263  0  0   5   0   0  1
 264  2  0   0   0   0  0
 265  0  0   0   0   6  0
 266  3  0   0   0   0  0
 267  0  1   0   0   1  0
 268  0  0   2  44   4  0
 269  1  0   0   0   0  0
 270  0  0   5   0   0  1
 271  2  0   0   0   0  0
 272  0  0   0   0   6  0
 273  3  0   0   0   0  0
 274  0  1   0   0   1  0
 275  0  0   2  45   4  0
 276  1  0   0   0   0  0
 277  0  0   5   0   0  1
 278  2  0   0   0   0  0
 279  0  0   0   0   6  0
 280  3  0   0   0   0  0
 281  0  1   0   0   1  0
 282  0  0   2  46   4  0
 283  1  0   0   0   0  0
 284  0  0   5   0   0  1
 285  2  0   0   0   0  0
 286  0  0   0   0   6  0
 287  3  0   0   0   0  0
 288  0  1   0   0   1  0
 289  0  0   2  47   4  0
 290  1  0   0   0   0  0
 291  0  0   5   0   0  1
 292  2  0   0   0   0  0
 293  0  0   0   0   6  0
 294  3  0   0   0   0  0
 295  0  1   0   0   1  0
 296  0  0   2  48   4  0
 297  1  0   0   0   0  0
 298  0  0   5   0   0  1
 299  2  0   0   0   0  0
 300  0  0   0   0   6  0
 301  3  0   0   0   0  0
 302  0  1   0   0   1  0
 303  0  0   2  49   4  0
 304  1  0   0   0   0  0
 305  0  0   5   0   0  1
 306  2  0   0   0   0  0
 307  0  0   0   0   6  0
 308  3  0   0   0   0  0
 309  0  1   0   0   1  0
 310  0  0   2  50   4  0
 311  1  0   0   0   0  0
 312  0  0   5   0   0  1
 313  2  0   0   0   0  0
 314  0  0   0   0   6  0
 315  3  0   0   0   0  0
 316  0  1   0   0   1  0
 317  0  0   2  51   4  0
 318  1  0   0   0   0  0
 319  0  0   5   0   0  1
 320  2  0   0   0   0  0
 321  0  0   0   0   6  0
 322  3  0   0   0   0  0
 323  0  1   0   0   1  0
 324  0  0   2  52   4  0
 325  1  0   0   0   0  0
 326  0  0   5   0   0  1
 327  2  0   0   0   0  0
 328  0  0   0   0   6  0
 329  3  0   0   0   0  0
 330  0  1   0   0   1  0
 331  0  0   2  53   4  0
 332  1  0   0   0   0  0
 333  0  0   5   0   0  1
 334  2  0   0   0   0  0
 335  0  0   0   0   6  0
 336  3  0   0   0   0  0
 337  0  1   0   0   1  0
 338  0  0   2  54   4  0
 339  1  0   0   0   0  0
 340  0  0   5   0   0  1
 341  2  0   0   0   0  0
 342  0  0   0   0   6  0
 343  3  0   0   0   0  0
 344  0  1   0   0   1  0
 345  0  0   2  55   4  0
 346  1  0   0   0   0  0
 347  0  0   5   0   0  1
 348  2  0   0   0   0  0
 349  0  0   0   0   6  0
 350  3  0   0   0   0  0
 351  0  1   0   0   1  0
 352  0  0   2  56   4  0
 353  1  0   0   0   0  0
 354  0  0   5   0   0  1
 355  2  0   0   0   0  0
 356  0  0   0   0   6  0
 357  3  0   0   0   0  0
 358  0  1   0   0   1  0
 359  0  0   2  57   4  0
 360  1  0   0   0   0  0
 361  0  0   5   0   0  1
 362  2  0   0   0   0  0
 363  0  0   0   0   6  0
 364  3  0   0   0   0  0
 365  0  1   0   0   1  0
 366  0  0   2  58   4  0
 367  1  0   0   0   0  0
 368  0  0   5   0   0  1
 369  2  0   0   0   0  0
 370  0  0   0   0   6  0
 371  3  0   0   0   0  0
 372  0  1   0   0   1  0
 373  0  0   2  59   4  0
 374  1  0   0   0   0  0
 375  0  0   5   0   0  1
 376  2  0   0   0   0  0
 377  0  0   0   0   6  0
 378  3  0   0   0   0  0
 379  0  1   0   0   1  0
 380  0  0   2  60   4  0
[RF]
1       82.288 1 2 0 0

# Format of trapezoid gradients:
# id amplitude rise flat fall
# ..      Hz/m   us   us   us
[TRAP]
 1       200000  30 4000  30
 2      -349091  50 1900  50
 3      -298368  50 1900  50
 4      -204569  30 1940  30
 5  1.16364e+06 170 1000 170
 6       722870 170 2060 170
 7      -296037  50 1900  50
 8      -293706  50 1900  50
 9      -291375  50 1900  50
10      -287570  40 1920  40
11      -285250  40 1920  40
12      -282931  40 1920  40
13      -280612  40 1920  40
14      -278293  40 1920  40
15      -275974  40 1920  40
16      -273655  40 1920  40
17      -271336  40 1920  40
18      -269017  40 1920  40
19      -266698  40 1920  40
20      -264378  40 1920  40
21      -262059  40 1920  40
22      -259740  40 1920  40
23      -257421  40 1920  40
24      -255102  40 1920  40
25      -252783  40 1920  40
26      -250464  40 1920  40
27      -248145  40 1920  40
28      -245826  40 1920  40
29      -243506  40 1920  40
30      -241187  40 1920  40
31      -238868  40 1920  40
32      -236549  40 1920  40
33      -234230  40 1920  40
34      -231911  40 1920  40
35      -229592  40 1920  40
36      -227273  40 1920  40
37      -224954  40 1920  40
38      -222635  40 1920  40
39      -220315  40 1920  40
40      -216890  30 1940  30
41      -214582  30 1940  30
42      -212275  30 1940  30
43      -209968  30 1940  30
44      -207660  30 1940  30
45      -205353  30 1940  30
46      -203046  30 1940  30
47      -200738  30 1940  30
48      -198431  30 1940  30
49      -196124  30 1940  30
50      -193816  30 1940  30
51      -191509  30 1940  30
52      -189202  30 1940  30
53      -186894  30 1940  30
54      -184587  30 1940  30
55      -182280  30 1940  30
56      -179972  30 1940  30
57      -177665  30 1940  30
58      -175358  30 1940  30
59      -173050  30 1940  30
60      -170743  30 1940  30
61      -168436  30 1940  30
62      -166128  30 1940  30
63      -163821  30 1940  30
64      -161514  30 1940  30
65      -159206  30 1940  30
66      -156899  30 1940  30
67      -154592  30 1940  30
68      -152284  30 1940  30
69      -149977  30 1940  30
70      -147670  30 1940  30
71      -144628  20 1960  20
72      -142332  20 1960  20
73      -140037  20 1960  20
74      -137741  20 1960  20
75      -135445  20 1960  20
76      -133150  20 1960  20
77      -130854  20 1960  20
78      -128558  20 1960  20
79      -126263  20 1960  20
80      -123967  20 1960  20
81      -121671  20 1960  20
82      -119376  20 1960  20
83      -117080  20 1960  20
84      -114784  20 1960  20
85      -112489  20 1960  20
86      -110193  20 1960  20
87      -107897  20 1960  20
88      -105601  20 1960  20
89      -103306  20 1960  20
90      -101010  20 1960  20
91     -98714.4  20 1960  20
92     -96418.7  20 1960  20
93       -94123  20 1960  20
94     -91827.4  20 1960  20
95     -89531.7  20 1960  20
96       -87236  20 1960  20
97     -84940.3  20 1960  20
98     -82644.6  20 1960  20
99     -80348.9  20 1960  20
100     -78053.3  20 1960  20
101     -75757.6  20 1960  20
102     -73461.9  20 1960  20
103     -70808.6  10 1980  10
104     -68524.4  10 1980  10
105     -66240.3  10 1980  10
106     -63956.1  10 1980  10
107       -61672  10 1980  10
108     -59387.8  10 1980  10
109     -57103.7  10 1980  10
110     -54819.6  10 1980  10
111     -52535.4  10 1980  10
112     -50251.3  10 1980  10
113     -47967.1  10 1980  10
114       -45683  10 1980  10
115     -43398.8  10 1980  10
116     -41114.7  10 1980  10
117     -38830.5  10 1980  10
118     -36546.4  10 1980  10
119     -34262.2  10 1980  10
120     -31978.1  10 1980  10
121     -29693.9  10 1980  10
122     -27409.8  10 1980  10
123     -25125.6  10 1980  10
124     -22841.5  10 1980  10
125     -20557.3  10 1980  10
126     -18273.2  10 1980  10
127       -15989  10 1980  10
128     -13704.9  10 1980  10
129     -11420.7  10 1980  10
130     -9136.59  10 1980  10
131     -6852.44  10 1980  10
132      -4568.3  10 1980  10
133     -2284.15  10 1980  10
134            0   0 2000   0
135      2284.15  10 1980  10
136       4568.3  10 1980  10
137      6852.44  10 1980  10
138      9136.59  10 1980  10
139      11420.7  10 1980  10
140      13704.9  10 1980  10
141        15989  10 1980  10
142      18273.2  10 1980  10
143      20557.3  10 1980  10
144      22841.5  10 1980  10
145      25125.6  10 1980  10
146      27409.8  10 1980  10
147      29693.9  10 1980  10
148      31978.1  10 1980  10
149      34262.2  10 1980  10
150      36546.4  10 1980  10
151      38830.5  10 1980  10
152      41114.7  10 1980  10
153      43398.8  10 1980  10
154        45683  10 1980  10
155      47967.1  10 1980  10
156      50251.3  10 1980  10
157      52535.4  10 1980  10
158      54819.6  10 1980  10
159      57103.7  10 1980  10
160      59387.8  10 1980  10
161        61672  10 1980  10
162      63956.1  10 1980  10
163      66240.3  10 1980  10
164      68524.4  10 1980  10
165      70808.6  10 1980  10
166      73461.9  20 1960  20
167      75757.6  20 1960  20
168      78053.3  20 1960  20
169      80348.9  20 1960  20
170      82644.6  20 1960  20
171      84940.3  20 1960  20
172        87236  20 1960  20
173      89531.7  20 1960  20
174      91827.4  20 1960  20
175        94123  20 1960  20
176      96418.7  20 1960  20
177      98714.4  20 1960  20
178       101010  20 1960  20
179       103306  20 1960  20
180       105601  20 1960  20
181       107897  20 1960  20
182       110193  20 1960  20
183       112489  20 1960  20
184       114784  20 1960  20
185       117080  20 1960  20
186       119376  20 1960  20
187       121671  20 1960  20
188       123967  20 1960  20
189       126263  20 1960  20
190       128558  20 1960  20
191       130854  20 1960  20
192       133150  20 1960  20
193       135445  20 1960  20
194       137741  20 1960  20
195       140037  20 1960  20
196       142332  20 1960  20
197       144628  20 1960  20
198       147670  30 1940  30
199       149977  30 1940  30
200       152284  30 1940  30
201       154592  30 1940  30
202       156899  30 1940  30
203       159206  30 1940  30
204       161514  30 1940  30
205       163821  30 1940  30
206       166128  30 1940  30
207       168436  30 1940  30
208       170743  30 1940  30
209       173050  30 1940  30
210       175358  30 1940  30
211       177665  30 1940  30
212       179972  30 1940  30
213       182280  30 1940  30
214       184587  30 1940  30
215       186894  30 1940  30
216       189202  30 1940  30
217       191509  30 1940  30
218       193816  30 1940  30
219       196124  30 1940  30
220       198431  30 1940  30
221       200738  30 1940  30
222       203046  30 1940  30
223       205353  30 1940  30
224       207660  30 1940  30
225       209968  30 1940  30
226       212275  30 1940  30
227       214582  30 1940  30
228       216890  30 1940  30
229       220315  40 1920  40
230       222635  40 1920  40
231       224954  40 1920  40
232       227273  40 1920  40
233       229592  40 1920  40
234       231911  40 1920  40
235       234230  40 1920  40
236       236549  40 1920  40
237       238868  40 1920  40
238       241187  40 1920  40
239       243506  40 1920  40
240       245826  40 1920  40
241       248145  40 1920  40
242       250464  40 1920  40
243       252783  40 1920  40
244       255102  40 1920  40
245       257421  40 1920  40
246       259740  40 1920  40
247       262059  40 1920  40
248       264378  40 1920  40
249       266698  40 1920  40
250       269017  40 1920  40
251       271336  40 1920  40
252       273655  40 1920  40
253       275974  40 1920  40
254       278293  40 1920  40
255       280612  40 1920  40
256       282931  40 1920  40
257       285250  40 1920  40
258       287570  40 1920  40
259       291375  50 1900  50
260       293706  50 1900  50
261       296037  50 1900  50

# Format of ADC events:
# id num dwell delay freq phase
# ..  ..    ns    us   Hz   rad
[ADC]
 1 256 3.906250e+03 170 0 0

# Format of delays:
# id delay (us)
[DELAYS]
1 13270
2 6635
3 19330

# Sequence Shapes
[SHAPES]

shape_id 1
num_samples 4030
0
0
34
3.93359e-08
5.23773e-08
6.72953e-08
8.40932e-08
1.02774e-07
1.23341e-07
1.45797e-07
1.70145e-07
1.96389e-07
2.2453e-07
2.54572e-07
2.86517e-07
3.20368e-07
3.56129e-07
3.938e-07
4.33385e-07
4.74886e-07
5.18306e-07
5.63646e-07
6.1091e-07
6.60098e-07
7.11214e-07
7.6426e-07
8.19236e-07
8.76146e-07
9.34991e-07
9.95773e-07
1.05849e-06
1.12315e-06
1.18976e-06
1.2583e-06
1.32879e-06
1.40123e-06
1.47561e-06
1.55195e-06
1.63023e-06
1.71046e-06
1.79265e-06
1.87679e-06
1.96289e-06
2.05093e-06
2.14094e-06
2.2329e-06
2.32682e-06
2.4227e-06
2.52053e-06
2.62033e-06
2.72208e-06
2.82579e-06
2.93147e-06
3.0391e-06
3.14869e-06
3.26025e-06
3.37376e-06
3.48923e-06
3.60667e-06
3.72606e-06
3.84742e-06
3.97073e-06
4.09601e-06
4.22324e-06
4.35243e-06
4.48357e-06
4.61668e-06
4.75174e-06
4.88875e-06
5.02772e-06
5.16864e-06
5.31152e-06
5.45634e-06
5.60312e-06
5.75184e-06
5.90251e-06
6.05513e-06
6.2097e-06
6.3662e-06
6.52465e-06
6.68504e-06
6.84737e-06
7.01163e-06
7.17783e-06
7.34596e-06
7.51602e-06
7.68801e-06
7.86193e-06
8.03777e-06
8.21554e-06
8.39522e-06
8.57682e-06
8.76034e-06
8.94577e-06
9.13311e-06
9.32235e-06
9.5135e-06
9.70656e-06
9.90151e-06
1.00984e-05
1.02971e-05
1.04977e-05
1.07002e-05
1.09046e-05
1.11109e-05
1.13191e-05
1.15291e-05
1.1741e-05
1.19548e-05
1.21704e-05
1.23879e-05
1.26072e-05
1.28284e-05
1.30514e-05
1.32763e-05
1.3503e-05
1.37316e-05
1.3962e-05
1.41942e-05
1.44282e-05
1.46641e-05
1.49017e-05
1.51412e-05
1.53825e-05
1.56255e-05
1.58704e-05
1.6117e-05
1.63655e-05
1.66157e-05
1.68677e-05
1.71214e-05
1.7377e-05
1.76343e-05
1.78933e-05
1.81541e-05
1.84166e-05
1.86809e-05
1.89468e-05
1.92146e-05
1.9484e-05
1.97551e-05
2.0028e-05
2.03026e-05
2.05788e-05
2.08567e-05
2.11364e-05
2.14177e-05
2.17006e-05
2.19853e-05
2.22716e-05
2.25595e-05
2.28491e-05
2.31403e-05
2.34332e-05
2.37277e-05
2.40238e-05
2.43215e-05
2.46208e-05
2.49217e-05
2.52242e-05
2.55282e-05
2.58339e-05
2.61411e-05
2.64499e-05
2.67602e-05
2.70721e-05
2.73855e-05
2.77004e-05
2.80169e-05
2.83348e-05
2.86543e-05
2.89753e-05
2.92977e-05
2.96217e-05
2.99471e-05
3.0274e-05
3.06023e-05
3.09321e-05
3.12633e-05
3.15959e-05
3.193e-05
3.22655e-05
3.26023e-05
3.29406e-05
3.32803e-05
3.36213e-05
3.39637e-05
3.43075e-05
3.46526e-05
3.49991e-05
3.53469e-05
3.5696e-05
3.60464e-05
3.63981e-05
3.67512e-05
3.71055e-05
3.7461e-05
3.78179e-05
3.8176e-05
3.85353e-05
3.88959e-05
3.92577e-05
3.96207e-05
3.99849e-05
4.03503e-05
4.07169e-05
4.10847e-05
4.14536e-05
4.18237e-05
4.21949e-05
4.25672e-05
4.29407e-05
4.33153e-05
4.3691e-05
4.40677e-05
4.44456e-05
4.48245e-05
4.52044e-05
4.55854e-05
4.59675e-05
4.63505e-05
4.67346e-05
4.71197e-05
4.75057e-05
4.78927e-05
4.82807e-05
4.86697e-05
4.90596e-05
4.94504e-05
4.98421e-05
5.02347e-05
5.06282e-05
5.10226e-05
5.14179e-05
5.1814e-05
5.2211e-05
5.26088e-05
5.30074e-05
5.34069e-05
5.38071e-05
5.42081e-05
5.46099e-05
5.50124e-05
5.54157e-05
5.58197e-05
5.62244e-05
5.66298e-05
5.70359e-05
5.74427e-05
5.78502e-05
5.82583e-05
5.86671e-05
5.90765e-05
5.94865e-05
5.98971e-05
6.03083e-05
6.072e-05
6.11324e-05
6.15452e-05
6.19586e-05
6.23726e-05
6.2787e-05
6.32019e-05
6.36173e-05
6.40332e-05
6.44495e-05
6.48662e-05
6.52834e-05
6.5701e-05
6.61189e-05
6.65373e-05
6.6956e-05
6.73751e-05
6.77945e-05
6.82142e-05
6.86342e-05
6.90545e-05
6.94751e-05
6.9896e-05
7.03171e-05
7.07385e-05
7.11601e-05
7.15818e-05
7.20038e-05
7.24259e-05
7.28482e-05
7.32707e-05
7.36932e-05
7.41159e-05
7.45387e-05
7.49616e-05
7.53845e-05
7.58075e-05
7.62306e-05
7.66536e-05
7.70767e-05
7.74997e-05
7.79228e-05
7.83457e-05
7.87687e-05
7.91915e-05
7.96143e-05
8.0037e-05
8.04595e-05
8.0882e-05
8.13042e-05
8.17263e-05
8.21483e-05
8.257e-05
8.29915e-05
8.34128e-05
8.38338e-05
8.42546e-05
8.46751e-05
8.50953e-05
8.55151e-05
8.59347e-05
8.63539e-05
8.67728e-05
8.71912e-05
8.76093e-05
8.8027e-05
8.84442e-05
8.8861e-05
8.92773e-05
8.96932e-05
9.01085e-05
9.05234e-05
9.09377e-05
9.13515e-05
9.17647e-05
9.21773e-05
9.25893e-05
9.30007e-05
9.34115e-05
9.38217e-05
9.42311e-05
9.46399e-05
9.5048e-05
9.54554e-05
9.5862e-05
9.62679e-05
9.6673e-05
9.70774e-05
9.74809e-05
9.78836e-05
9.82855e-05
9.86865e-05
9.90866e-05
9.94859e-05
9.98842e-05
0.000100282
0.000100678
0.000101074
0.000101468
0.000101862
0.000102254
0.000102646
0.000103036
0.000103425
0.000103814
0.000104201
0.000104587
0.000104972
0.000105356
0.000105738
0.000106119
0.0001065
0.000106878
0.000107256
0.000107633
0.000108008
0.000108381
0.000108754
0.000109125
0.000109495
0.000109863
0.00011023
0.000110596
0.00011096
0.000111323
0.000111684
0.000112044
0.000112402
0.000112759
0.000113114
0.000113468
0.00011382
0.00011417
0.000114519
0.000114866
0.000115211
0.000115555
0.000115897
0.000116238
0.000116577
0.000116914
0.000117249
0.000117582
0.000117914
0.000118244
0.000118572
0.000118898
0.000119222
0.000119544
0.000119864
0.000120183
0.000120499
0.000120814
0.000121126
0.000121437
0.000121745
0.000122052
0.000122356
0.000122658
0.000122959
0.000123257
0.000123553
0.000123846
0.000124138
0.000124427
0.000124714
0.000124999
0.000125282
0.000125562
0.00012584
0.000126116
0.000126389
0.00012666
0.000126929
0.000127195
0.000127459
0.000127721
0.00012798
0.000128236
0.00012849
0.000128742
0.000128991
0.000129237
0.000129481
0.000129723
0.000129961
0.000130197
0.000130431
0.000130662
0.00013089
0.000131115
0.000131338
0.000131558
0.000131775
0.00013199
0.000132202
0.000132411
0.000132617
0.00013282
0.00013302
0.000133218
0.000133412
0.000133604
0.000133793
0.000133978
0.000134161
0.000134341
0.000134518
0.000134691
0.000134862
0.00013503
0.000135194
0.000135356
0.000135514
0.000135669
0.000135821
0.00013597
0.000136115
0.000136258
0.000136397
0.000136533
0.000136665
0.000136794
0.00013692
0.000137043
0.000137162
0.000137278
0.000137391
0.0001375
0.000137606
0.000137708
0.000137807
0.000137902
0.000137994
0.000138082
0.000138167
0.000138248
0.000138326
0.0001384
0.00013847
0.000138537
0.0001386
0.00013866
0.000138715
0.000138767
0.000138816
0.000138861
0.000138901
0.000138939
0.000138972
0.000139002
0.000139027
0.000139049
0.000139067
0.000139081
0.000139091
0.000139091
4
0.00013907
0.000139053
0.000139031
0.000139005
0.000138976
0.000138942
0.000138904
0.000138862
0.000138816
0.000138766
0.000138711
0.000138652
0.00013859
0.000138522
0.000138451
0.000138375
0.000138296
0.000138211
0.000138123
0.00013803
0.000137933
0.000137831
0.000137725
0.000137615
0.0001375
0.000137381
0.000137258
0.00013713
0.000136997
0.00013686
0.000136718
0.000136572
0.000136422
0.000136267
0.000136107
0.000135942
0.000135773
0.0001356
0.000135422
0.000135239
0.000135051
0.000134859
0.000134662
0.00013446
0.000134254
0.000134043
0.000133827
0.000133606
0.000133381
0.000133151
0.000132915
0.000132675
0.000132431
0.000132181
0.000131926
0.000131667
0.000131402
0.000131133
0.000130859
0.00013058
0.000130295
0.000130006
0.000129712
0.000129413
0.000129108
0.000128799
0.000128485
0.000128165
0.000127841
0.000127511
0.000127176
0.000126836
0.000126491
0.000126141
0.000125785
0.000125425
0.000125059
0.000124688
0.000124311
0.00012393
0.000123543
0.000123151
0.000122754
0.000122351
0.000121943
0.00012153
0.000121111
0.000120687
0.000120258
0.000119823
0.000119383
0.000118937
0.000118486
0.00011803
0.000117568
0.000117101
0.000116628
0.00011615
0.000115666
0.000115177
0.000114682
0.000114182
0.000113676
0.000113165
0.000112648
0.000112125
0.000111597
0.000111064
0.000110524
0.000109979
0.000109429
0.000108873
0.000108311
0.000107743
0.00010717
0.000106591
0.000106007
0.000105416
0.00010482
0.000104219
0.000103611
0.000102998
0.000102379
0.000101754
0.000101123
0.000100487
9.98448e-05
9.91968e-05
9.8543e-05
9.78834e-05
9.72179e-05
9.65465e-05
9.58693e-05
9.51862e-05
9.44972e-05
9.38024e-05
9.31016e-05
9.23949e-05
9.16823e-05
9.09638e-05
9.02393e-05
8.95089e-05
8.87725e-05
8.80302e-05
8.72819e-05
8.65276e-05
8.57674e-05
8.50011e-05
8.42288e-05
8.34505e-05
8.26662e-05
8.18759e-05
8.10795e-05
8.02771e-05
7.94686e-05
7.8654e-05
7.78334e-05
7.70068e-05
7.6174e-05
7.53351e-05
7.44902e-05
7.36391e-05
7.2782e-05
7.19187e-05
7.10493e-05
7.01737e-05
6.9292e-05
6.84042e-05
6.75102e-05
6.66101e-05
6.57038e-05
6.47913e-05
6.38727e-05
6.29479e-05
6.20169e-05
6.10797e-05
6.01363e-05
5.91866e-05
5.82308e-05
5.72688e-05
5.63006e-05
5.53261e-05
5.43454e-05
5.33584e-05
5.23653e-05
5.13658e-05
5.03602e-05
4.93482e-05
4.83301e-05
4.73056e-05
4.62749e-05
4.52379e-05
4.41947e-05
4.31451e-05
4.20893e-05
4.10272e-05
3.99588e-05
3.88841e-05
3.78031e-05
3.67159e-05
3.56223e-05
3.45224e-05
3.34162e-05
3.23037e-05
3.11849e-05
3.00597e-05
2.89282e-05
2.77905e-05
2.66464e-05
2.54959e-05
2.43391e-05
2.3176e-05
2.20066e-05
2.08309e-05
1.96488e-05
1.84603e-05
1.72655e-05
1.60644e-05
1.48569e-05
1.36431e-05
1.2423e-05
1.11965e-05
9.96364e-06
8.72445e-06
7.47891e-06
6.22702e-06
4.96879e-06
3.7042e-06
2.43326e-06
1.15598e-06
-1.27658e-07
-1.41764e-06
-2.71398e-06
-4.01666e-06
-5.32569e-06
-6.64107e-06
-7.9628e-06
-9.29087e-06
-1.06253e-05
-1.19661e-05
-1.33132e-05
-1.46666e-05
-1.60264e-05
-1.73925e-05
-1.8765e-05
-2.01438e-05
-2.1529e-05
-2.29204e-05
-2.43182e-05
-2.57224e-05
-2.71328e-05
-2.85496e-05
-2.99727e-05
-3.14021e-05
-3.28379e-05
-3.42799e-05
-3.57283e-05
-3.7183e-05
-3.8644e-05
-4.01112e-05
-4.15848e-05
-4.30647e-05
-4.45509e-05
-4.60433e-05
-4.7542e-05
-4.90471e-05
-5.05583e-05
-5.20759e-05
-5.35997e-05
-5.51298e-05
-5.66662e-05
-5.82088e-05
-5.97576e-05
-6.13127e-05
-6.28741e-05
-6.44417e-05
-6.60155e-05
-6.75955e-05
-6.91817e-05
-7.07742e-05
-7.23729e-05
-7.39777e-05
-7.55888e-05
-7.7206e-05
-7.88295e-05
-8.04591e-05
-8.20949e-05
-8.37368e-05
-8.53849e-05
-8.70392e-05
-8.86996e-05
-9.03661e-05
-9.20388e-05
-9.37176e-05
-9.54025e-05
-9.70935e-05
-9.87906e-05
-0.000100494
-0.000102203
-0.000103919
-0.00010564
-0.000107368
-0.000109101
-0.000110841
-0.000112586
-0.000114338
-0.000116096
-0.000117859
-0.000119629
-0.000121405
-0.000123187
-0.000124974
-0.000126768
-0.000128567
-0.000130373
-0.000132184
-0.000134002
-0.000135825
-0.000137654
-0.000139489
-0.00014133
-0.000143177
-0.00014503
-0.000146889
-0.000148753
-0.000150623
-0.0001525
-0.000154381
-0.000156269
-0.000158163
-0.000160062
-0.000161967
-0.000163878
-0.000165794
-0.000167717
-0.000169645
-0.000171578
-0.000173518
-0.000175463
-0.000177414
-0.00017937
-0.000181332
-0.0001833
-0.000185273
-0.000187252
-0.000189236
-0.000191226
-0.000193222
-0.000195223
-0.00019723
-0.000199242
-0.00020126
-0.000203283
-0.000205312
-0.000207346
-0.000209386
-0.000211431
-0.000213481
-0.000215537
-0.000217598
-0.000219665
-0.000221737
-0.000223815
-0.000225897
-0.000227985
-0.000230079
-0.000232177
-0.000234281
-0.00023639
-0.000238505
-0.000240624
-0.000242749
-0.000244879
-0.000247015
-0.000249155
-0.0002513
-0.000253451
-0.000255607
-0.000257768
-0.000259933
-0.000262104
-0.00026428
-0.000266461
-0.000268647
-0.000270838
-0.000273034
-0.000275235
-0.000277441
-0.000279652
-0.000281868
-0.000284088
-0.000286313
-0.000288544
-0.000290779
-0.000293019
-0.000295263
-0.000297513
-0.000299767
-0.000302026
-0.000304289
-0.000306558
-0.00030883
-0.000311108
-0.00031339
-0.000315677
-0.000317969
-0.000320265
-0.000322565
-0.00032487
-0.00032718
-0.000329494
-0.000331812
-0.000334135
-0.000336463
-0.000338794
-0.000341131
-0.000343471
-0.000345816
-0.000348165
-0.000350519
-0.000352876
-0.000355238
-0.000357605
-0.000359975
-0.00036235
-0.000364729
-0.000367112
-0.000369499
-0.00037189
-0.000374285
-0.000376684
-0.000379088
-0.000381495
-0.000383906
-0.000386322
-0.000388741
-0.000391164
-0.000393591
-0.000396022
-0.000398457
-0.000400895
-0.000403338
-0.000405784
-0.000408234
-0.000410687
-0.000413144
-0.000415605
-0.00041807
-0.000420538
-0.00042301
-0.000425486
-0.000427965
-0.000430447
-0.000432933
-0.000435423
-0.000437916
-0.000440412
-0.000442912
-0.000445415
-0.000447921
-0.000450431
-0.000452944
-0.000455461
-0.000457981
-0.000460503
-0.000463029
-0.000465559
-0.000468091
-0.000470627
-0.000473165
