# Pulseq sequence file
# Created by MATLAB mr toolbox

# Format of blocks:
#  #  D RF  GX  GY  GZ ADC
[BLOCKS]
  1  0  1   0   0   1  0
  2  1  0   0   0   0  0
  3  0  2   0   0   2  0
  4  2  0   0   0   0  0
  5  0  0   3   4   0  0
  6  0  0   5   0   0  1
  7  0  0   3   6   0  0
  8  3  0   0   0   0  0
  9  0  2   0   0   2  0
 10  2  0   0   0   0  0
 11  0  0   3   7   0  0
 12  0  0   5   0   0  1
 13  0  0   3   8   0  0
 14  3  0   0   0   0  0
 15  0  2   0   0   2  0
 16  2  0   0   0   0  0
 17  0  0   3   9   0  0
 18  0  0   5   0   0  1
 19  0  0   3  10   0  0
 20  3  0   0   0   0  0
 21  0  2   0   0   2  0
 22  2  0   0   0   0  0
 23  0  0   3  11   0  0
 24  0  0   5   0   0  1
 25  0  0   3  12   0  0
 26  3  0   0   0   0  0
 27  0  2   0   0   2  0
 28  2  0   0   0   0  0
 29  0  0   3  13   0  0
 30  0  0   5   0   0  1
 31  0  0   3  14   0  0
 32  3  0   0   0   0  0
 33  0  2   0   0   2  0
 34  2  0   0   0   0  0
 35  0  0   3  15   0  0
 36  0  0   5   0   0  1
 37  0  0   3  16   0  0
 38  3  0   0   0   0  0
 39  0  2   0   0   2  0
 40  2  0   0   0   0  0
 41  0  0   3  17   0  0
 42  0  0   5   0   0  1
 43  0  0   3  18   0  0
 44  3  0   0   0   0  0
 45  0  2   0   0   2  0
 46  2  0   0   0   0  0
 47  0  0   3  19   0  0
 48  0  0   5   0   0  1
 49  0  0   3  20   0  0
 50  3  0   0   0   0  0
 51  0  2   0   0   2  0
 52  2  0   0   0   0  0
 53  0  0   3  21   0  0
 54  0  0   5   0   0  1
 55  0  0   3  22   0  0
 56  3  0   0   0   0  0
 57  0  2   0   0   2  0
 58  2  0   0   0   0  0
 59  0  0   3  23   0  0
 60  0  0   5   0   0  1
 61  0  0   3  24   0  0
 62  3  0   0   0   0  0
 63  0  2   0   0   2  0
 64  2  0   0   0   0  0
 65  0  0   3  25   0  0
 66  0  0   5   0   0  1
 67  0  0   3  26   0  0
 68  3  0   0   0   0  0
 69  0  2   0   0   2  0
 70  2  0   0   0   0  0
 71  0  0   3  27   0  0
 72  0  0   5   0   0  1
 73  0  0   3  28   0  0
 74  3  0   0   0   0  0
 75  0  2   0   0   2  0
 76  2  0   0   0   0  0
 77  0  0   3  29   0  0
 78  0  0   5   0   0  1
 79  0  0   3  30   0  0
 80  3  0   0   0   0  0
 81  0  2   0   0   2  0
 82  2  0   0   0   0  0
 83  0  0   3  31   0  0
 84  0  0   5   0   0  1
 85  0  0   3  32   0  0
 86  3  0   0   0   0  0
 87  0  2   0   0   2  0
 88  2  0   0   0   0  0
 89  0  0   3  33   0  0
 90  0  0   5   0   0  1
 91  0  0   3  34   0  0
 92  3  0   0   0   0  0
 93  0  2   0   0   2  0
 94  2  0   0   0   0  0
 95  0  0   3  35   0  0
 96  0  0   5   0   0  1
 97  0  0   3  36   0  0
 98  3  0   0   0   0  0
 99  0  2   0   0   2  0
100  2  0   0   0   0  0
101  0  0   3  37   0  0
102  0  0   5   0   0  1
103  0  0   3  38   0  0
104  3  0   0   0   0  0
105  0  2   0   0   2  0
106  2  0   0   0   0  0
107  0  0   3  39   0  0
108  0  0   5   0   0  1
109  0  0   3  40   0  0
110  3  0   0   0   0  0
111  0  2   0   0   2  0
112  2  0   0   0   0  0
113  0  0   3  41   0  0
114  0  0   5   0   0  1
115  0  0   3  42   0  0
116  3  0   0   0   0  0
117  0  2   0   0   2  0
118  2  0   0   0   0  0
119  0  0   3  43   0  0
120  0  0   5   0   0  1
121  0  0   3  44   0  0
122  3  0   0   0   0  0
123  0  2   0   0   2  0
124  2  0   0   0   0  0
125  0  0   3  45   0  0
126  0  0   5   0   0  1
127  0  0   3  46   0  0
128  3  0   0   0   0  0
129  0  2   0   0   2  0
130  2  0   0   0   0  0
131  0  0   3  47   0  0
132  0  0   5   0   0  1
133  0  0   3  48   0  0
134  3  0   0   0   0  0
135  0  2   0   0   2  0
136  2  0   0   0   0  0
137  0  0   3  49   0  0
138  0  0   5   0   0  1
139  0  0   3  50   0  0
140  3  0   0   0   0  0
141  0  2   0   0   2  0
142  2  0   0   0   0  0
143  0  0   3  51   0  0
144  0  0   5   0   0  1
145  0  0   3  52   0  0
146  3  0   0   0   0  0
147  0  2   0   0   2  0
148  2  0   0   0   0  0
149  0  0   3  53   0  0
150  0  0   5   0   0  1
151  0  0   3  54   0  0
152  3  0   0   0   0  0
153  0  2   0   0   2  0
154  2  0   0   0   0  0
155  0  0   3  55   0  0
156  0  0   5   0   0  1
157  0  0   3  56   0  0
158  3  0   0   0   0  0
159  0  2   0   0   2  0
160  2  0   0   0   0  0
161  0  0   3  57   0  0
162  0  0   5   0   0  1
163  0  0   3  58   0  0
164  3  0   0   0   0  0
165  0  2   0   0   2  0
166  2  0   0   0   0  0
167  0  0   3  59   0  0
168  0  0   5   0   0  1
169  0  0   3  60   0  0
170  3  0   0   0   0  0
171  0  2   0   0   2  0
172  2  0   0   0   0  0
173  0  0   3  61   0  0
174  0  0   5   0   0  1
175  0  0   3  62   0  0
176  3  0   0   0   0  0
177  0  2   0   0   2  0
178  2  0   0   0   0  0
179  0  0   3  63   0  0
180  0  0   5   0   0  1
181  0  0   3  64   0  0
182  3  0   0   0   0  0
183  0  2   0   0   2  0
184  2  0   0   0   0  0
185  0  0   3  65   0  0
186  0  0   5   0   0  1
187  0  0   3  66   0  0
188  3  0   0   0   0  0
189  0  2   0   0   2  0
190  2  0   0   0   0  0
191  0  0   3  67   0  0
192  0  0   5   0   0  1
193  0  0   3  68   0  0
194  3  0   0   0   0  0
195  0  2   0   0   2  0
196  2  0   0   0   0  0
197  0  0   3  69   0  0
198  0  0   5   0   0  1
199  0  0   3  70   0  0
200  3  0   0   0   0  0
201  0  2   0   0   2  0
202  2  0   0   0   0  0
203  0  0   3  71   0  0
204  0  0   5   0   0  1
205  0  0   3  72   0  0
206  3  0   0   0   0  0
207  0  2   0   0   2  0
208  2  0   0   0   0  0
209  0  0   3  73   0  0
210  0  0   5   0   0  1
211  0  0   3  74   0  0
212  3  0   0   0   0  0
213  0  2   0   0   2  0
214  2  0   0   0   0  0
215  0  0   3  75   0  0
216  0  0   5   0   0  1
217  0  0   3  76   0  0
218  3  0   0   0   0  0
219  0  2   0   0   2  0
220  2  0   0   0   0  0
221  0  0   3  77   0  0
222  0  0   5   0   0  1
223  0  0   3  78   0  0
224  3  0   0   0   0  0
225  0  2   0   0   2  0
226  2  0   0   0   0  0
227  0  0   3  79   0  0
228  0  0   5   0   0  1
229  0  0   3  80   0  0
230  3  0   0   0   0  0
231  0  2   0   0   2  0
232  2  0   0   0   0  0
233  0  0   3  81   0  0
234  0  0   5   0   0  1
235  0  0   3  82   0  0
236  3  0   0   0   0  0
237  0  2   0   0   2  0
238  2  0   0   0   0  0
239  0  0   3  83   0  0
240  0  0   5   0   0  1
241  0  0   3  84   0  0
242  3  0   0   0   0  0
243  0  2   0   0   2  0
244  2  0   0   0   0  0
245  0  0   3  85   0  0
246  0  0   5   0   0  1
247  0  0   3  86   0  0
248  3  0   0   0   0  0
249  0  2   0   0   2  0
250  2  0   0   0   0  0
251  0  0   3  87   0  0
252  0  0   5   0   0  1
253  0  0   3  88   0  0
254  3  0   0   0   0  0
255  0  2   0   0   2  0
256  2  0   0   0   0  0
257  0  0   3  89   0  0
258  0  0   5   0   0  1
259  0  0   3  90   0  0
260  3  0   0   0   0  0
261  0  2   0   0   2  0
262  2  0   0   0   0  0
263  0  0   3  91   0  0
264  0  0   5   0   0  1
265  0  0   3  92   0  0
266  3  0   0   0   0  0
267  0  2   0   0   2  0
268  2  0   0   0   0  0
269  0  0   3  93   0  0
270  0  0   5   0   0  1
271  0  0   3  94   0  0
272  3  0   0   0   0  0
273  0  2   0   0   2  0
274  2  0   0   0   0  0
275  0  0   3  95   0  0
276  0  0   5   0   0  1
277  0  0   3  96   0  0
278  3  0   0   0   0  0
279  0  2   0   0   2  0
280  2  0   0   0   0  0
281  0  0   3  97   0  0
282  0  0   5   0   0  1
283  0  0   3  98   0  0
284  3  0   0   0   0  0
285  0  2   0   0   2  0
286  2  0   0   0   0  0
287  0  0   3  99   0  0
288  0  0   5   0   0  1
289  0  0   3 100   0  0
290  3  0   0   0   0  0
291  0  2   0   0   2  0
292  2  0   0   0   0  0
293  0  0   3 101   0  0
294  0  0   5   0   0  1
295  0  0   3 102   0  0
296  3  0   0   0   0  0
297  0  2   0   0   2  0
298  2  0   0   0   0  0
299  0  0   3 103   0  0
300  0  0   5   0   0  1
301  0  0   3 104   0  0
302  3  0   0   0   0  0
303  0  2   0   0   2  0
304  2  0   0   0   0  0
305  0  0   3 105   0  0
306  0  0   5   0   0  1
307  0  0   3 106   0  0
308  3  0   0   0   0  0
309  0  2   0   0   2  0
310  2  0   0   0   0  0
311  0  0   3 107   0  0
312  0  0   5   0   0  1
313  0  0   3 108   0  0
314  3  0   0   0   0  0
315  0  2   0   0   2  0
316  2  0   0   0   0  0
317  0  0   3 109   0  0
318  0  0   5   0   0  1
319  0  0   3 110   0  0
320  3  0   0   0   0  0
321  0  2   0   0   2  0
322  2  0   0   0   0  0
323  0  0   3 111   0  0
324  0  0   5   0   0  1
325  0  0   3 112   0  0
326  3  0   0   0   0  0
327  0  2   0   0   2  0
328  2  0   0   0   0  0
329  0  0   3 113   0  0
330  0  0   5   0   0  1
331  0  0   3 114   0  0
332  3  0   0   0   0  0
333  0  2   0   0   2  0
334  2  0   0   0   0  0
335  0  0   3 115   0  0
336  0  0   5   0   0  1
337  0  0   3 116   0  0
338  3  0   0   0   0  0
339  0  2   0   0   2  0
340  2  0   0   0   0  0
341  0  0   3 117   0  0
342  0  0   5   0   0  1
343  0  0   3 118   0  0
344  3  0   0   0   0  0
345  0  2   0   0   2  0
346  2  0   0   0   0  0
347  0  0   3 119   0  0
348  0  0   5   0   0  1
349  0  0   3 120   0  0
350  3  0   0   0   0  0
351  0  2   0   0   2  0
352  2  0   0   0   0  0
353  0  0   3 121   0  0
354  0  0   5   0   0  1
355  0  0   3 122   0  0
356  3  0   0   0   0  0
357  0  2   0   0   2  0
358  2  0   0   0   0  0
359  0  0   3 123   0  0
360  0  0   5   0   0  1
361  0  0   3 124   0  0
362  3  0   0   0   0  0
363  0  2   0   0   2  0
364  2  0   0   0   0  0
365  0  0   3 125   0  0
366  0  0   5   0   0  1
367  0  0   3 126   0  0
368  3  0   0   0   0  0
369  0  2   0   0   2  0
370  2  0   0   0   0  0
371  0  0   3 127   0  0
372  0  0   5   0   0  1
373  0  0   3 128   0  0
374  3  0   0   0   0  0
375  0  2   0   0   2  0
376  2  0   0   0   0  0
377  0  0   3 129   0  0
378  0  0   5   0   0  1
379  0  0   3 130   0  0
380  3  0   0   0   0  0
381  0  2   0   0   2  0
382  2  0   0   0   0  0
383  0  0   3 131   0  0
384  0  0   5   0   0  1
385  0  0   3 132   0  0
386  3  0   0   0   0  0
387  0  2   0   0   2  0
388  2  0   0   0   0  0
389  0  0   3 133   0  0
390  0  0   5   0   0  1
391  0  0   3 134   0  0
392  3  0   0   0   0  0
393  0  2   0   0   2  0
394  2  0   0   0   0  0
395  0  0   3 135   0  0
[RF]
1      329.152 1 2 0 0
2      658.304 3 4 0 0

# Format of trapezoid gradients:
# id amplitude rise flat fall
# ..      Hz/m   us   us   us
[TRAP]
 1       266667  70 3000  70
 2       444444 110 3000 110
 3      -444044 110 1060 110
 4       255102  40 1920  40
 5       390625 100 2560 100
 6      -255102  40 1920  40
 7       253109  40 1920  40
 8      -253109  40 1920  40
 9       251116  40 1920  40
10      -251116  40 1920  40
11       249123  40 1920  40
12      -249123  40 1920  40
13       247130  40 1920  40
14      -247130  40 1920  40
15       245137  40 1920  40
16      -245137  40 1920  40
17       243144  40 1920  40
18      -243144  40 1920  40
19       241151  40 1920  40
20      -241151  40 1920  40
21       239158  40 1920  40
22      -239158  40 1920  40
23       237165  40 1920  40
24      -237165  40 1920  40
25       235172  40 1920  40
26      -235172  40 1920  40
27       233179  40 1920  40
28      -233179  40 1920  40
29       231186  40 1920  40
30      -231186  40 1920  40
31       229193  40 1920  40
32      -229193  40 1920  40
33       227200  40 1920  40
34      -227200  40 1920  40
35       225207  40 1920  40
36      -225207  40 1920  40
37       223214  40 1920  40
38      -223214  40 1920  40
39       221221  40 1920  40
40      -221221  40 1920  40
41       219228  40 1920  40
42      -219228  40 1920  40
43       216133  30 1940  30
44      -216133  30 1940  30
45       214150  30 1940  30
46      -214150  30 1940  30
47       212167  30 1940  30
48      -212167  30 1940  30
49       210184  30 1940  30
50      -210184  30 1940  30
51       208201  30 1940  30
52      -208201  30 1940  30
53       206218  30 1940  30
54      -206218  30 1940  30
55       204235  30 1940  30
56      -204235  30 1940  30
57       202253  30 1940  30
58      -202253  30 1940  30
59       200270  30 1940  30
60      -200270  30 1940  30
61       198287  30 1940  30
62      -198287  30 1940  30
63       196304  30 1940  30
64      -196304  30 1940  30
65       194321  30 1940  30
66      -194321  30 1940  30
67       192338  30 1940  30
68      -192338  30 1940  30
69       190355  30 1940  30
70      -190355  30 1940  30
71       188372  30 1940  30
72      -188372  30 1940  30
73       186390  30 1940  30
74      -186390  30 1940  30
75       184407  30 1940  30
76      -184407  30 1940  30
77       182424  30 1940  30
78      -182424  30 1940  30
79       180441  30 1940  30
80      -180441  30 1940  30
81       178458  30 1940  30
82      -178458  30 1940  30
83       176475  30 1940  30
84      -176475  30 1940  30
85       174492  30 1940  30
86      -174492  30 1940  30
87       172510  30 1940  30
88      -172510  30 1940  30
89       170527  30 1940  30
90      -170527  30 1940  30
91       168544  30 1940  30
92      -168544  30 1940  30
93       166561  30 1940  30
94      -166561  30 1940  30
95       164578  30 1940  30
96      -164578  30 1940  30
97       162595  30 1940  30
98      -162595  30 1940  30
99       160612  30 1940  30
100      -160612  30 1940  30
101       158629  30 1940  30
102      -158629  30 1940  30
103       156647  30 1940  30
104      -156647  30 1940  30
105       154664  30 1940  30
106      -154664  30 1940  30
107       152681  30 1940  30
108      -152681  30 1940  30
109       150698  30 1940  30
110      -150698  30 1940  30
111       148715  30 1940  30
112      -148715  30 1940  30
113       146732  30 1940  30
114      -146732  30 1940  30
115       144018  20 1960  20
116      -144018  20 1960  20
117       142045  20 1960  20
118      -142045  20 1960  20
119       140073  20 1960  20
120      -140073  20 1960  20
121       138100  20 1960  20
122      -138100  20 1960  20
123       136127  20 1960  20
124      -136127  20 1960  20
125       134154  20 1960  20
126      -134154  20 1960  20
127       132181  20 1960  20
128      -132181  20 1960  20
129       130208  20 1960  20
130      -130208  20 1960  20
131       128235  20 1960  20
132      -128235  20 1960  20
133       126263  20 1960  20
134      -126263  20 1960  20
135       124290  20 1960  20
136      -124290  20 1960  20
137       122317  20 1960  20
138      -122317  20 1960  20
139       120344  20 1960  20
140      -120344  20 1960  20
141       118371  20 1960  20
142      -118371  20 1960  20
143       116398  20 1960  20
144      -116398  20 1960  20
145       114426  20 1960  20
146      -114426  20 1960  20
147       112453  20 1960  20
148      -112453  20 1960  20
149       110480  20 1960  20
150      -110480  20 1960  20
151       108507  20 1960  20
152      -108507  20 1960  20
153       106534  20 1960  20
154      -106534  20 1960  20
155       104561  20 1960  20
156      -104561  20 1960  20
157       102588  20 1960  20
158      -102588  20 1960  20
159       100616  20 1960  20
160      -100616  20 1960  20
161      98642.7  20 1960  20
162     -98642.7  20 1960  20
163      96669.8  20 1960  20
164     -96669.8  20 1960  20
165        94697  20 1960  20
166       -94697  20 1960  20
167      92724.1  20 1960  20
168     -92724.1  20 1960  20
169      90751.3  20 1960  20
170     -90751.3  20 1960  20
171      88778.4  20 1960  20
172     -88778.4  20 1960  20
173      86805.6  20 1960  20
174     -86805.6  20 1960  20
175      84832.7  20 1960  20
176     -84832.7  20 1960  20
177      82859.8  20 1960  20
178     -82859.8  20 1960  20
179        80887  20 1960  20
180       -80887  20 1960  20
181      78914.1  20 1960  20
182     -78914.1  20 1960  20
183      76941.3  20 1960  20
184     -76941.3  20 1960  20
185      74968.4  20 1960  20
186     -74968.4  20 1960  20
187      72995.6  20 1960  20
188     -72995.6  20 1960  20
189      70665.8  10 1980  10
190     -70665.8  10 1980  10
191      68702.9  10 1980  10
192     -68702.9  10 1980  10
193      66739.9  10 1980  10
194     -66739.9  10 1980  10
195        64777  10 1980  10
196       -64777  10 1980  10
197      62814.1  10 1980  10
198     -62814.1  10 1980  10
199      60851.1  10 1980  10
200     -60851.1  10 1980  10
201      58888.2  10 1980  10
202     -58888.2  10 1980  10
203      56925.3  10 1980  10
204     -56925.3  10 1980  10
205      54962.3  10 1980  10
206     -54962.3  10 1980  10
207      52999.4  10 1980  10
208     -52999.4  10 1980  10
209      51036.4  10 1980  10
210     -51036.4  10 1980  10
211      49073.5  10 1980  10
212     -49073.5  10 1980  10
213      47110.6  10 1980  10
214     -47110.6  10 1980  10
215      45147.6  10 1980  10
216     -45147.6  10 1980  10
217      43184.7  10 1980  10
218     -43184.7  10 1980  10
219      41221.7  10 1980  10
220     -41221.7  10 1980  10
221      39258.8  10 1980  10
222     -39258.8  10 1980  10
223      37295.9  10 1980  10
224     -37295.9  10 1980  10
225      35332.9  10 1980  10
226     -35332.9  10 1980  10
227        33370  10 1980  10
228       -33370  10 1980  10
229        31407  10 1980  10
230       -31407  10 1980  10
231      29444.1  10 1980  10
232     -29444.1  10 1980  10
233      27481.2  10 1980  10
234     -27481.2  10 1980  10
235      25518.2  10 1980  10
236     -25518.2  10 1980  10
237      23555.3  10 1980  10
238     -23555.3  10 1980  10
239      21592.3  10 1980  10
240     -21592.3  10 1980  10
241      19629.4  10 1980  10
242     -19629.4  10 1980  10
243      17666.5  10 1980  10
244     -17666.5  10 1980  10
245      15703.5  10 1980  10
246     -15703.5  10 1980  10
247      13740.6  10 1980  10
248     -13740.6  10 1980  10
249      11777.6  10 1980  10
250     -11777.6  10 1980  10
251       9814.7  10 1980  10
252      -9814.7  10 1980  10
253      7851.76  10 1980  10
254     -7851.76  10 1980  10
255      5888.82  10 1980  10
256     -5888.82  10 1980  10
257      3925.88  10 1980  10
258     -3925.88  10 1980  10
259      1962.94  10 1980  10
260     -1962.94  10 1980  10
261           -0   0 2000   0

# Format of ADC events:
# id num dwell delay freq phase
# ..  ..    ns    us   Hz   rad
[ADC]
 1 256  10000 100 0 0

# Format of delays:
# id delay (us)
[DELAYS]
1 42374
2 47065
3 77240

# Sequence Shapes
[SHAPES]

shape_id 1
num_samples 3070
0
0
71
2.71337e-08
4.47714e-08
6.68458e-08
9.33671e-08
1.24346e-07
1.59791e-07
1.99713e-07
2.44122e-07
2.93026e-07
3.46434e-07
4.04355e-07
4.66797e-07
5.33769e-07
6.05277e-07
6.81331e-07
7.61936e-07
8.47101e-07
9.36831e-07
1.03113e-06
1.13002e-06
1.23348e-06
1.34154e-06
1.45419e-06
1.57145e-06
1.6933e-06
1.81977e-06
1.95086e-06
2.08656e-06
2.22689e-06
2.37184e-06
2.52142e-06
2.67564e-06
2.83449e-06
2.99798e-06
3.1661e-06
3.33887e-06
3.51628e-06
3.69834e-06
3.88504e-06
4.07639e-06
4.27238e-06
4.47302e-06
4.67831e-06
4.88825e-06
5.10283e-06
5.32205e-06
5.54592e-06
5.77443e-06
6.00758e-06
6.24537e-06
6.48779e-06
6.73484e-06
6.98653e-06
7.24284e-06
7.50378e-06
7.76933e-06
8.0395e-06
8.31428e-06
8.59366e-06
8.87765e-06
9.16623e-06
9.4594e-06
9.75716e-06
1.00595e-05
1.03664e-05
1.06779e-05
1.09939e-05
1.13145e-05
1.16396e-05
1.19692e-05
1.23034e-05
1.26421e-05
1.29853e-05
1.3333e-05
1.36852e-05
1.40419e-05
1.4403e-05
1.47686e-05
1.51387e-05
1.55132e-05
1.58921e-05
1.62754e-05
1.66632e-05
1.70553e-05
1.74518e-05
1.78527e-05
1.82579e-05
1.86675e-05
1.90814e-05
1.94996e-05
1.99221e-05
2.03489e-05
2.07799e-05
2.12152e-05
2.16548e-05
2.20986e-05
2.25466e-05
2.29987e-05
2.34551e-05
2.39156e-05
2.43802e-05
2.4849e-05
2.53219e-05
2.57988e-05
2.62798e-05
2.67649e-05
2.7254e-05
2.77471e-05
2.82443e-05
2.87453e-05
2.92504e-05
2.97593e-05
3.02722e-05
3.0789e-05
3.13096e-05
3.18341e-05
3.23624e-05
3.28945e-05
3.34304e-05
3.397e-05
3.45134e-05
3.50605e-05
3.56112e-05
3.61657e-05
3.67237e-05
3.72854e-05
3.78507e-05
3.84195e-05
3.89919e-05
3.95678e-05
4.01472e-05
4.073e-05
4.13163e-05
4.1906e-05
4.2499e-05
4.30954e-05
4.36951e-05
4.42982e-05
4.49045e-05
4.5514e-05
4.61267e-05
4.67427e-05
4.73617e-05
4.79839e-05
4.86092e-05
4.92376e-05
4.9869e-05
5.05033e-05
5.11407e-05
5.1781e-05
5.24242e-05
5.30702e-05
5.37192e-05
5.43709e-05
5.50254e-05
5.56826e-05
5.63425e-05
5.70052e-05
5.76704e-05
5.83383e-05
5.90087e-05
5.96817e-05
6.03572e-05
6.10352e-05
6.17155e-05
6.23983e-05
6.30835e-05
6.37709e-05
6.44607e-05
6.51527e-05
6.58469e-05
6.65433e-05
6.72419e-05
6.79425e-05
6.86452e-05
6.93499e-05
7.00566e-05
7.07653e-05
7.14759e-05
7.21883e-05
7.29026e-05
7.36186e-05
7.43364e-05
7.50559e-05
7.57771e-05
7.64999e-05
7.72243e-05
7.79502e-05
7.86776e-05
7.94065e-05
8.01368e-05
8.08685e-05
8.16015e-05
8.23358e-05
8.30714e-05
8.38082e-05
8.45461e-05
8.52851e-05
8.60252e-05
8.67664e-05
8.75085e-05
8.82515e-05
8.89955e-05
8.97403e-05
9.04859e-05
9.12322e-05
9.19793e-05
9.2727e-05
9.34754e-05
9.42243e-05
9.49738e-05
9.57237e-05
9.64741e-05
9.72248e-05
9.79759e-05
9.87273e-05
9.94789e-05
0.000100231
0.000100983
0.000101735
0.000102487
0.000103239
0.000103991
0.000104743
0.000105495
0.000106246
0.000106998
0.000107749
0.000108499
0.00010925
0.00011
0.000110749
0.000111498
0.000112246
0.000112993
0.00011374
0.000114486
0.000115232
0.000115976
0.00011672
0.000117462
0.000118204
0.000118944
0.000119683
0.000120421
0.000121158
0.000121894
0.000122628
0.000123361
0.000124092
0.000124822
0.000125551
0.000126277
0.000127002
0.000127726
0.000128447
0.000129167
0.000129885
0.000130601
0.000131315
0.000132027
0.000132736
0.000133444
0.000134149
0.000134853
0.000135553
0.000136252
0.000136948
0.000137641
0.000138332
0.00013902
0.000139706
0.000140389
0.000141069
0.000141746
0.000142421
0.000143092
0.00014376
0.000144426
0.000145088
0.000145747
0.000146403
0.000147055
0.000147704
0.00014835
0.000148992
0.000149631
0.000150266
0.000150897
0.000151525
0.000152149
0.000152769
0.000153385
0.000153997
0.000154606
0.00015521
0.00015581
0.000156406
0.000156998
0.000157585
0.000158168
0.000158746
0.000159321
0.00015989
0.000160455
0.000161015
0.000161571
0.000162122
0.000162668
0.000163209
0.000163745
0.000164276
0.000164802
0.000165323
0.000165839
0.000166349
0.000166854
0.000167354
0.000167848
0.000168337
0.00016882
0.000169298
0.00016977
0.000170236
0.000170697
0.000171151
0.0001716
0.000172043
0.000172479
0.00017291
0.000173334
0.000173753
0.000174165
0.00017457
0.000174969
0.000175362
0.000175748
0.000176128
0.000176501
0.000176867
0.000177227
0.00017758
0.000177926
0.000178265
0.000178597
0.000178922
0.000179239
0.00017955
0.000179853
0.00018015
0.000180438
0.00018072
0.000180994
0.00018126
0.000181519
0.00018177
0.000182013
0.000182249
0.000182477
0.000182697
0.000182909
0.000183113
0.000183309
0.000183497
0.000183677
0.000183848
0.000184011
0.000184166
0.000184313
0.000184451
0.00018458
0.000184701
0.000184813
0.000184917
0.000185012
0.000185098
0.000185175
0.000185243
0.000185303
0.000185353
0.000185394
0.000185426
0.000185449
0.000185463
0.000185463
1
0.000185447
0.000185423
0.00018539
0.000185346
0.000185294
0.000185231
0.000185159
0.000185077
0.000184985
0.000184883
0.000184771
0.00018465
0.000184518
0.000184376
0.000184223
0.000184061
0.000183888
0.000183705
0.000183511
0.000183308
0.000183093
0.000182868
0.000182632
0.000182386
0.000182129
0.000181861
0.000181583
0.000181293
0.000180993
0.000180682
0.000180359
0.000180026
0.000179681
0.000179326
0.000178959
0.000178581
0.000178191
0.00017779
0.000177378
0.000176954
0.000176519
0.000176072
0.000175614
0.000175144
0.000174662
0.000174168
0.000173663
0.000173146
0.000172617
0.000172076
0.000171523
0.000170958
0.000170381
0.000169792
0.000169191
0.000168577
0.000167951
0.000167313
0.000166663
0.000166
0.000165325
0.000164637
0.000163937
0.000163225
0.000162499
0.000161761
0.000161011
0.000160247
0.000159471
0.000158682
0.000157881
0.000157066
0.000156239
0.000155398
0.000154545
0.000153678
0.000152799
0.000151906
0.000151
0.000150081
0.000149149
0.000148204
0.000147245
0.000146273
0.000145287
0.000144289
0.000143276
0.000142251
0.000141211
0.000140158
0.000139092
0.000138012
0.000136918
0.000135811
0.00013469
0.000133555
0.000132407
0.000131244
0.000130068
0.000128878
0.000127674
0.000126456
0.000125225
0.000123979
0.000122719
0.000121445
0.000120157
0.000118855
0.000117539
0.000116209
0.000114864
0.000113505
0.000112132
0.000110745
0.000109344
0.000107928
0.000106498
0.000105053
0.000103595
0.000102121
0.000100634
9.91314e-05
9.76148e-05
9.60837e-05
9.45381e-05
9.29779e-05
9.14032e-05
8.98139e-05
8.821e-05
8.65915e-05
8.49584e-05
8.33106e-05
8.16481e-05
7.9971e-05
7.82791e-05
7.65725e-05
7.48512e-05
7.31151e-05
7.13642e-05
6.95986e-05
6.78181e-05
6.60228e-05
6.42127e-05
6.23878e-05
6.0548e-05
5.86933e-05
5.68237e-05
5.49393e-05
5.30399e-05
5.11256e-05
4.91964e-05
4.72523e-05
4.52932e-05
4.33191e-05
4.13301e-05
3.93261e-05
3.73071e-05
3.52731e-05
3.32242e-05
3.11602e-05
2.90812e-05
2.69872e-05
2.48782e-05
2.27541e-05
2.0615e-05
1.84609e-05
1.62917e-05
1.41075e-05
1.19083e-05
9.694e-06
7.46466e-06
5.22027e-06
2.96082e-06
6.86331e-07
-1.60321e-06
-3.90781e-06
-6.22745e-06
-8.56214e-06
-1.09119e-05
-1.32767e-05
-1.56565e-05
-1.80513e-05
-2.04612e-05
-2.28862e-05
-2.53261e-05
-2.77811e-05
-3.0251e-05
-3.2736e-05
-3.5236e-05
-3.7751e-05
-4.0281e-05
-4.28259e-05
-4.53858e-05
-4.79607e-05
-5.05505e-05
-5.31553e-05
-5.5775e-05
-5.84096e-05
-6.10591e-05
-6.37235e-05
-6.64028e-05
-6.9097e-05
-7.1806e-05
-7.45299e-05
-7.72686e-05
-8.00221e-05
-8.27904e-05
-8.55736e-05
-8.83714e-05
-9.1184e-05
-9.40114e-05
-9.68535e-05
-9.97102e-05
-0.000102582
-0.000105468
-0.000108369
-0.000111284
-0.000114214
-0.000117158
-0.000120118
-0.000123091
-0.000126079
-0.000129082
-0.000132099
-0.000135131
-0.000138177
-0.000141237
-0.000144312
-0.000147401
-0.000150504
-0.000153622
-0.000156754
-0.0001599
-0.00016306
-0.000166235
-0.000169423
-0.000172626
-0.000175843
-0.000179074
-0.000182319
-0.000185578
-0.000188851
-0.000192138
-0.000195438
-0.000198753
-0.000202081
-0.000205423
-0.000208779
-0.000212149
-0.000215532
-0.000218929
-0.00022234
-0.000225764
-0.000229202
-0.000232653
-0.000236118
-0.000239596
-0.000243087
-0.000246592
-0.00025011
-0.000253641
-0.000257186
-0.000260743
-0.000264314
-0.000267898
-0.000271495
-0.000275105
-0.000278727
-0.000282363
-0.000286012
-0.000289673
-0.000293347
-0.000297034
-0.000300733
-0.000304445
-0.00030817
-0.000311907
-0.000315657
-0.000319419
-0.000323193
-0.00032698
-0.000330779
-0.00033459
-0.000338413
-0.000342249
-0.000346096
-0.000349956
-0.000353827
-0.00035771
-0.000361606
-0.000365512
-0.000369431
-0.000373361
-0.000377303
-0.000381257
-0.000385221
-0.000389198
-0.000393185
-0.000397184
-0.000401194
-0.000405216
-0.000409248
-0.000413292
-0.000417346
-0.000421412
-0.000425488
-0.000429575
-0.000433673
-0.000437782
-0.000441901
-0.000446031
-0.000450171
-0.000454321
-0.000458482
-0.000462654
-0.000466835
-0.000471027
-0.000475228
-0.00047944
-0.000483661
-0.000487893
-0.000492134
-0.000496385
-0.000500646
-0.000504916
-0.000509196
-0.000513485
-0.000517783
-0.000522091
-0.000526408
-0.000530734
-0.00053507
-0.000539414
-0.000543767
-0.000548129
-0.0005525
-0.000556879
-0.000561267
-0.000565663
-0.000570068
-0.000574482
-0.000578904
-0.000583333
-0.000587771
-0.000592217
-0.000596671
-0.000601133
-0.000605603
-0.000610081
-0.000614566
-0.000619058
-0.000623559
-0.000628066
-0.000632581
-0.000637103
-0.000641632
-0.000646169
-0.000650712
-0.000655262
-0.000659819
-0.000664383
0.000668953
0.00067353
0.000678113
0.000682703
0.000687299
0.000691901
0.000696509
0.000701123
0.000705743
0.000710369
0.000715001
0.000719638
0.000724281
0.00072893
0.000733583
0.000738242
0.000742907
0.000747576
0.00075225
0.000756929
0.000761613
0.000766302
0.000770995
0.000775693
0.000780396
0.000785102
0.000789813
0.000794528
0.000799247
0.00080397
0.000808697
0.000813428
0.000818162
0.0008229
0.000827641
0.000832386
0.000837134
0.000841885
0.000846639
0.000851396
0.000856156
0.000860918
0.000865684
0.000870452
0.000875222
0.000879995
0.00088477
0.000889547
0.000894326
0.000899107
0.00090389
0.000908675
0.000913461
0.000918249
0.000923038
0.000927829
0.00093262
0.000937413
0.000942207
0.000947002
0.000951797
0.000956594
0.000961391
0.000966188
0.000970985
0.000975783
0.000980581
0.00098538
0.000990178
0.000994975
0.000999773
0.00100457
0.00100937
0.00101416
0.00101896
0.00102375
0.00102855
0.00103334
0.00103813
0.00104292
0.00104771
0.0010525
0.00105728
0.00106207
0.00106685
0.00107163
0.00107641
0.00108118
0.00108596
0.00109073
0.0010955
0.00110026
0.00110503
0.00110979
0.00111455
0.0011193
0.00112405
0.0011288
0.00113354
0.00113829
0.00114302
0.00114776
0.00115249
0.00115721
0.00116194
0.00116665
0.00117137
0.00117608
0.00118078
0.00118548
0.00119018
0.00119487
0.00119955
0.00120423
0.00120891
0.00121358
0.00121824
0.0012229
0.00122756
0.0012322
0.00123684
0.00124148
0.00124611
0.00125073
0.00125535
0.00125996
0.00126456
0.00126916
0.00127375
0.00127833
0.00128291
0.00128748
0.00129204
0.00129659
0.00130114
0.00130568
0.00131021
0.00131473
0.00131925
0.00132375
0.00132825
0.00133274
0.00133722
0.0013417
0.00134616
0.00135062
0.00135506
0.0013595
0.00136393
0.00136835
0.00137276
0.00137716
0.00138155
0.00138593
0.0013903
0.00139467
0.00139902
0.00140336
0.00140769
0.00141201
0.00141632
0.00142062
0.0014249
0.00142918
0.00143345
0.0014377
0.00144195
0.00144618
0.0014504
0.00145461
0.00145881
0.00146299
0.00146717
0.00147133
0.00147548
0.00147962
0.00148374
0.00148785
0.00149195
0.00149604
0.00150011
0.00150418
0.00150822
0.00151226
0.00151628
0.00152029
0.00152428
0.00152826
0.00153223
0.00153618
0.00154012
0.00154405
0.00154796
0.00155185
0.00155574
0.0015596
0.00156346
0.0015673
0.00157112
0.00157493
0.00157872
0.0015825
0.00158626
0.00159001
0.00159374
0.00159745
0.00160115
0.00160484
0.00160851
0.00161216
0.00161579
0.00161941
0.00162302
0.0016266
0.00163017
0.00163372
0.00163726
0.00164078
0.00164428
0.00164777
0.00165123
0.00165468
0.00165812
0.00166153
0.00166493
0.00166831
0.00167167
0.00167501
0.00167834
0.00168164
0.00168493
0.0016882
0.00169146
0.00169469
0.0016979
0.0017011
0.00170427
0.00170743
0.00171057
0.00171369
0.00171679
0.00171987
0.00172293
0.00172597
0.00172899
0.00173199
0.00173497
0.00173793
0.00174087
0.00174379
0.00174669
