# Pulseq sequence file
# Created by MATLAB mr toolbox

# Format of blocks:
#  #  D RF  GX  GY  GZ ADC
[BLOCKS]
  1  0  1   0   0   0  0
  2  1  0   0   0   0  0
  3  0  2   0   0   1  0
  4  0  0   2   3   4  0
  5  2  0   0   0   0  0
  6  0  1   0   0   5  0
  7  3  0   0   0   0  0
  8  0  0   6   0   0  1
  9  0  0   7   3   0  0
 10  4  0   0   0   0  0
 11  0  1   0   0   0  0
 12  1  0   0   0   0  0
 13  0  2   0   0   1  0
 14  0  0   2   8   4  0
 15  2  0   0   0   0  0
 16  0  1   0   0   5  0
 17  3  0   0   0   0  0
 18  0  0   6   0   0  1
 19  0  0   7   8   0  0
 20  4  0   0   0   0  0
 21  0  1   0   0   0  0
 22  1  0   0   0   0  0
 23  0  2   0   0   1  0
 24  0  0   2   9   4  0
 25  2  0   0   0   0  0
 26  0  1   0   0   5  0
 27  3  0   0   0   0  0
 28  0  0   6   0   0  1
 29  0  0   7   9   0  0
 30  4  0   0   0   0  0
 31  0  1   0   0   0  0
 32  1  0   0   0   0  0
 33  0  2   0   0   1  0
 34  0  0   2  10   4  0
 35  2  0   0   0   0  0
 36  0  1   0   0   5  0
 37  3  0   0   0   0  0
 38  0  0   6   0   0  1
 39  0  0   7  10   0  0
 40  4  0   0   0   0  0
 41  0  1   0   0   0  0
 42  1  0   0   0   0  0
 43  0  2   0   0   1  0
 44  0  0   2  11   4  0
 45  2  0   0   0   0  0
 46  0  1   0   0   5  0
 47  3  0   0   0   0  0
 48  0  0   6   0   0  1
 49  0  0   7  11   0  0
 50  4  0   0   0   0  0
 51  0  1   0   0   0  0
 52  1  0   0   0   0  0
 53  0  2   0   0   1  0
 54  0  0   2  12   4  0
 55  2  0   0   0   0  0
 56  0  1   0   0   5  0
 57  3  0   0   0   0  0
 58  0  0   6   0   0  1
 59  0  0   7  12   0  0
 60  4  0   0   0   0  0
 61  0  1   0   0   0  0
 62  1  0   0   0   0  0
 63  0  2   0   0   1  0
 64  0  0   2  13   4  0
 65  2  0   0   0   0  0
 66  0  1   0   0   5  0
 67  3  0   0   0   0  0
 68  0  0   6   0   0  1
 69  0  0   7  13   0  0
 70  4  0   0   0   0  0
 71  0  1   0   0   0  0
 72  1  0   0   0   0  0
 73  0  2   0   0   1  0
 74  0  0   2  14   4  0
 75  2  0   0   0   0  0
 76  0  1   0   0   5  0
 77  3  0   0   0   0  0
 78  0  0   6   0   0  1
 79  0  0   7  14   0  0
 80  4  0   0   0   0  0
 81  0  1   0   0   0  0
 82  1  0   0   0   0  0
 83  0  2   0   0   1  0
 84  0  0   2  15   4  0
 85  2  0   0   0   0  0
 86  0  1   0   0   5  0
 87  3  0   0   0   0  0
 88  0  0   6   0   0  1
 89  0  0   7  15   0  0
 90  4  0   0   0   0  0
 91  0  1   0   0   0  0
 92  1  0   0   0   0  0
 93  0  2   0   0   1  0
 94  0  0   2  16   4  0
 95  2  0   0   0   0  0
 96  0  1   0   0   5  0
 97  3  0   0   0   0  0
 98  0  0   6   0   0  1
 99  0  0   7  16   0  0
100  4  0   0   0   0  0
101  0  1   0   0   0  0
102  1  0   0   0   0  0
103  0  2   0   0   1  0
104  0  0   2  17   4  0
105  2  0   0   0   0  0
106  0  1   0   0   5  0
107  3  0   0   0   0  0
108  0  0   6   0   0  1
109  0  0   7  17   0  0
110  4  0   0   0   0  0
111  0  1   0   0   0  0
112  1  0   0   0   0  0
113  0  2   0   0   1  0
114  0  0   2  18   4  0
115  2  0   0   0   0  0
116  0  1   0   0   5  0
117  3  0   0   0   0  0
118  0  0   6   0   0  1
119  0  0   7  18   0  0
120  4  0   0   0   0  0
121  0  1   0   0   0  0
122  1  0   0   0   0  0
123  0  2   0   0   1  0
124  0  0   2  19   4  0
125  2  0   0   0   0  0
126  0  1   0   0   5  0
127  3  0   0   0   0  0
128  0  0   6   0   0  1
129  0  0   7  19   0  0
130  4  0   0   0   0  0
131  0  1   0   0   0  0
132  1  0   0   0   0  0
133  0  2   0   0   1  0
134  0  0   2  20   4  0
135  2  0   0   0   0  0
136  0  1   0   0   5  0
137  3  0   0   0   0  0
138  0  0   6   0   0  1
139  0  0   7  20   0  0
140  4  0   0   0   0  0
141  0  1   0   0   0  0
142  1  0   0   0   0  0
143  0  2   0   0   1  0
144  0  0   2  21   4  0
145  2  0   0   0   0  0
146  0  1   0   0   5  0
147  3  0   0   0   0  0
148  0  0   6   0   0  1
149  0  0   7  21   0  0
150  4  0   0   0   0  0
151  0  1   0   0   0  0
152  1  0   0   0   0  0
153  0  2   0   0   1  0
154  0  0   2  22   4  0
155  2  0   0   0   0  0
156  0  1   0   0   5  0
157  3  0   0   0   0  0
158  0  0   6   0   0  1
159  0  0   7  22   0  0
160  4  0   0   0   0  0

# Format of RF events:
# id amplitude mag_id phase_id freq phase
# ..        Hz   ....     ....   Hz   rad
[RF]
1      351.511 1 2 0 0
2      329.152 3 4 0 0

# Format of trapezoid gradients:
# id amplitude rise flat fall
# ..      Hz/m   us   us   us
[TRAP]
 1       444444 110 3000 110
 2       207222  50 1180  50
 3      -177846  50 1180  50
 4      -874824 210  580 210
 5       111111  30 3000  30
 6       195312  50 2560  50
 7      -207222  50 1180  50
 8      -151210  40 1200  40
 9      -125000  30 1220  30
10      -100000  30 1220  30
11     -74404.8  20 1240  20
12     -49603.2  20 1240  20
13     -24606.3  10 1260  10
14           -0   0 1280   0
15      24606.3  10 1260  10
16      49603.2  20 1240  20
17      74404.8  20 1240  20
18       100000  30 1220  30
19       125000  30 1220  30
20       151210  40 1200  40
21       177846  50 1180  50
22       203252  50 1180  50

# Format of ADC events:
# id num dwell delay freq phase
# ..  ..    ns    us   Hz   rad
[ADC]
 1  16 160000  50 0 0

# Format of delays:
# id delay (us)
[DELAYS]
1 5000
2 3000
3 8720
4 17440

# Sequence Shapes
[SHAPES]

shape_id 1
num_samples 3030
0
0
28
6.98597e-07
2.09765e-06
3.49948e-06
4.90408e-06
6.31145e-06
7.72158e-06
9.13446e-06
1.05501e-05
1.19684e-05
1.33895e-05
1.48133e-05
1.62398e-05
1.7669e-05
1.91009e-05
2.05355e-05
2.19727e-05
2.34126e-05
2.48552e-05
2.63004e-05
2.77483e-05
2.91988e-05
3.06519e-05
3.21077e-05
3.3566e-05
3.5027e-05
3.64906e-05
3.79567e-05
3.94254e-05
4.08967e-05
4.23705e-05
4.38469e-05
4.53258e-05
4.68073e-05
4.82912e-05
4.97777e-05
5.12667e-05
5.27582e-05
5.42522e-05
5.57487e-05
5.72476e-05
5.8749e-05
6.02529e-05
6.17592e-05
6.32679e-05
6.4779e-05
6.62926e-05
6.78086e-05
6.9327e-05
7.08478e-05
7.23709e-05
7.38964e-05
7.54243e-05
7.69546e-05
7.84871e-05
8.00221e-05
8.15593e-05
8.30989e-05
8.46408e-05
8.61849e-05
8.77314e-05
8.92801e-05
9.08311e-05
9.23844e-05
9.39399e-05
9.54977e-05
9.70577e-05
9.86199e-05
0.000100184
0.000101751
0.00010332
0.000104891
0.000106464
0.000108039
0.000109617
0.000111197
0.000112778
0.000114362
0.000115948
0.000117537
0.000119127
0.000120719
0.000122314
0.00012391
0.000125509
0.000127109
0.000128712
0.000130317
0.000131923
0.000133532
0.000135143
0.000136755
0.00013837
0.000139987
0.000141605
0.000143226
0.000144848
0.000146473
0.000148099
0.000149727
0.000151357
0.00015299
0.000154623
0.000156259
0.000157897
0.000159536
0.000161178
0.000162821
0.000164466
0.000166113
0.000167761
0.000169412
0.000171064
0.000172718
0.000174373
0.000176031
0.00017769
0.000179351
0.000181013
0.000182678
0.000184343
0.000186011
0.00018768
0.000189351
0.000191024
0.000192698
0.000194374
0.000196052
0.000197731
0.000199412
0.000201094
0.000202778
0.000204463
0.00020615
0.000207839
0.000209529
0.00021122
0.000212913
0.000214608
0.000216304
0.000218002
0.000219701
0.000221401
0.000223103
0.000224806
0.000226511
0.000228217
0.000229925
0.000231634
0.000233344
0.000235056
0.000236769
0.000238483
0.000240199
0.000241916
0.000243634
0.000245354
0.000247075
0.000248797
0.000250521
0.000252246
0.000253972
0.000255699
0.000257427
0.000259157
0.000260888
0.00026262
0.000264353
0.000266087
0.000267823
0.00026956
0.000271297
0.000273036
0.000274776
0.000276517
0.00027826
0.000280003
0.000281747
0.000283493
0.000285239
0.000286986
0.000288735
0.000290484
0.000292235
0.000293986
0.000295739
0.000297492
0.000299246
0.000301001
0.000302758
0.000304515
0.000306273
0.000308031
0.000309791
0.000311552
0.000313313
0.000315075
0.000316838
0.000318602
0.000320367
0.000322133
0.000323899
0.000325666
0.000327434
0.000329202
0.000330971
0.000332741
0.000334512
0.000336284
0.000338056
0.000339828
0.000341602
0.000343376
0.00034515
0.000346926
0.000348702
0.000350478
0.000352255
0.000354033
0.000355811
0.00035759
0.000359369
0.000361149
0.00036293
0.000364711
0.000366492
0.000368274
0.000370056
0.000371839
0.000373622
0.000375406
0.00037719
0.000378974
0.000380759
0.000382544
0.00038433
0.000386116
0.000387902
0.000389689
0.000391476
0.000393263
0.000395051
0.000396839
0.000398627
0.000400415
0.000402204
0.000403993
0.000405782
0.000407571
0.00040936
0.00041115
0.00041294
0.00041473
0.00041652
0.00041831
0.000420101
0.000421891
0.000423682
0.000425472
0.000427263
0.000429054
0.000430845
0.000432636
0.000434427
0.000436218
0.000438009
0.000439799
0.00044159
0.000443381
0.000445172
0.000446963
0.000448753
0.000450544
0.000452334
0.000454125
0.000455915
0.000457705
0.000459495
0.000461285
0.000463074
0.000464863
0.000466653
0.000468442
0.00047023
0.000472019
0.000473807
0.000475595
0.000477383
0.00047917
0.000480957
0.000482744
0.00048453
0.000486316
0.000488102
0.000489887
0.000491672
0.000493457
0.000495241
0.000497025
0.000498808
0.000500591
0.000502374
0.000504156
0.000505937
0.000507718
0.000509499
0.000511278
0.000513058
0.000514837
0.000516615
0.000518393
0.00052017
0.000521947
0.000523722
0.000525498
0.000527273
0.000529047
0.00053082
0.000532593
0.000534365
0.000536136
0.000537907
0.000539676
0.000541446
0.000543214
0.000544982
0.000546748
0.000548515
0.00055028
0.000552044
0.000553808
0.000555571
0.000557333
0.000559094
0.000560854
0.000562613
0.000564372
0.000566129
0.000567886
0.000569641
0.000571396
0.000573149
0.000574902
0.000576654
0.000578405
0.000580154
0.000581903
0.000583651
0.000585397
0.000587143
0.000588887
0.00059063
0.000592372
0.000594114
0.000595853
0.000597592
0.00059933
0.000601066
0.000602802
0.000604536
0.000606269
0.000608
0.000609731
0.00061146
0.000613188
0.000614914
0.00061664
0.000618364
0.000620086
0.000621808
0.000623528
0.000625247
0.000626964
0.00062868
0.000630394
0.000632108
0.000633819
0.00063553
0.000637239
0.000638946
0.000640652
0.000642356
0.00064406
0.000645761
0.000647461
0.000649159
0.000650856
0.000652552
0.000654246
0.000655938
0.000657628
0.000659317
0.000661005
0.000662691
0.000664375
0.000666057
0.000667738
0.000669417
0.000671095
0.00067277
0.000674444
0.000676116
0.000677787
0.000679456
0.000681123
0.000682788
0.000684451
0.000686113
0.000687773
0.000689431
0.000691087
0.000692741
0.000694394
0.000696044
0.000697693
0.000699339
0.000700984
0.000702627
0.000704268
0.000705907
0.000707544
0.000709179
0.000710812
0.000712443
0.000714072
0.000715699
0.000717324
0.000718947
0.000720567
0.000722186
0.000723803
0.000725417
0.00072703
0.00072864
0.000730248
0.000731854
0.000733458
0.000735059
0.000736659
0.000738256
0.000739851
0.000741443
0.000743034
0.000744622
0.000746208
0.000747792
0.000749373
0.000750952
0.000752529
0.000754104
0.000755676
0.000757245
0.000758813
0.000760378
0.00076194
0.000763501
0.000765059
0.000766614
0.000768167
0.000769717
0.000771265
0.000772811
0.000774354
0.000775895
0.000777433
0.000778968
0.000780501
0.000782032
0.00078356
0.000785085
0.000786608
0.000788128
0.000789645
0.00079116
0.000792672
0.000794182
0.000795689
0.000797193
0.000798695
0.000800194
0.00080169
0.000803184
0.000804675
0.000806163
0.000807648
0.000809131
0.00081061
0.000812087
0.000813562
0.000815033
0.000816501
0.000817967
0.00081943
0.00082089
0.000822347
0.000823802
0.000825253
0.000826701
0.000828147
0.00082959
0.000831029
0.000832466
0.0008339
0.000835331
0.000836759
0.000838184
0.000839605
0.000841024
0.00084244
0.000843853
0.000845263
0.000846669
0.000848073
0.000849473
0.000850871
0.000852265
0.000853656
0.000855044
0.000856429
0.000857811
0.000859189
0.000860565
0.000861937
0.000863306
0.000864672
0.000866034
0.000867393
0.00086875
0.000870102
0.000871452
0.000872798
0.000874141
0.000875481
0.000876817
0.00087815
0.00087948
0.000880806
0.000882129
0.000883449
0.000884765
0.000886078
0.000887388
0.000888694
0.000889997
0.000891296
0.000892592
0.000893884
0.000895173
0.000896458
0.00089774
0.000899018
0.000900293
0.000901565
0.000902833
0.000904097
0.000905358
0.000906615
0.000907869
0.000909119
0.000910365
0.000911608
0.000912847
0.000914083
0.000915315
0.000916543
0.000917768
0.000918989
0.000920206
0.00092142
0.00092263
0.000923836
0.000925039
0.000926237
0.000927432
0.000928624
0.000929811
0.000930995
0.000932175
0.000933351
0.000934524
0.000935692
0.000936857
0.000938018
0.000939175
0.000940329
0.000941478
0.000942624
0.000943765
0.000944903
0.000946037
0.000947167
0.000948293
0.000949415
0.000950533
0.000951647
0.000952758
0.000953864
0.000954966
0.000956065
0.000957159
0.000958249
0.000959336
0.000960418
0.000961496
0.00096257
0.00096364
0.000964707
0.000965769
0.000966826
0.00096788
0.00096893
0.000969976
0.000971017
0.000972055
0.000973088
0.000974117
0.000975142
0.000976162
0.000977179
0.000978191
0.0009792
0.000980204
0.000981203
0.000982199
0.00098319
0.000984177
0.00098516
0.000986139
0.000987113
0.000988083
0.000989049
0.00099001
0.000990967
0.00099192
0.000992868
0.000993813
0.000994752
0.000995688
0.000996619
0.000997546
0.000998468
0.000999386
0.0010003
0.00100121
0.00100211
0.00100301
0.00100391
0.0010048
0.00100569
0.00100657
0.00100745
0.00100832
0.00100919
0.00101006
0.00101092
0.00101177
0.00101262
0.00101347
0.00101431
0.00101515
0.00101598
0.00101681
0.00101764
0.00101846
0.00101927
0.00102008
0.00102089
0.00102169
0.00102248
0.00102328
0.00102406
0.00102485
0.00102562
0.0010264
0.00102717
0.00102793
0.00102869
0.00102944
0.00103019
0.00103094
0.00103168
0.00103241
0.00103315
0.00103387
0.00103459
0.00103531
0.00103602
0.00103673
0.00103743
0.00103813
0.00103882
0.00103951
0.0010402
0.00104088
0.00104155
0.00104222
0.00104288
0.00104354
0.0010442
0.00104485
0.00104549
0.00104613
0.00104677
0.0010474
0.00104802
0.00104864
0.00104926
0.00104987
0.00105048
0.00105108
0.00105167
0.00105227
0.00105285
0.00105343
0.00105401
0.00105458
0.00105515
0.00105571
0.00105627
0.00105682
0.00105736
0.00105791
0.00105844
0.00105897
0.0010595
0.00106002
0.00106054
0.00106105
0.00106156
0.00106206
0.00106256
0.00106305
0.00106353
0.00106402
0.00106449
0.00106496
0.00106543
0.00106589
0.00106635
0.0010668
0.00106724
0.00106768
0.00106812
0.00106855
0.00106898
0.0010694
0.00106981
0.00107022
0.00107063
0.00107103
0.00107142
0.00107181
0.00107219
0.00107257
0.00107295
0.00107332
0.00107368
0.00107404
0.00107439
0.00107474
0.00107508
0.00107542
0.00107575
0.00107608
0.0010764
0.00107672
0.00107703
0.00107733
0.00107763
0.00107793
0.00107822
0.00107851
0.00107878
0.00107906
0.00107933
0.00107959
0.00107985
0.0010801
0.00108035
0.0010806
0.00108083
0.00108107
0.00108129
0.00108151
0.00108173
0.00108194
0.00108215
0.00108235
0.00108254
0.00108273
0.00108292
0.0010831
0.00108327
0.00108344
0.0010836
0.00108376
0.00108391
0.00108406
0.0010842
0.00108433
0.00108446
0.00108459
0.00108471
0.00108482
0.00108493
0.00108504
0.00108513
0.00108523
0.00108532
0.0010854
0.00108547
0.00108555
0.00108561
0.00108567
0.00108573
0.00108578
0.00108582
0.00108586
0.00108589
0.00108592
0.00108594
0.00108596
0.00108597
0.00108597
2
0.00108596
0.00108594
0.00108592
0.0010859
0.00108586
0.00108583
0.00108578
0.00108573
0.00108568
0.00108562
0.00108555
0.00108548
0.00108541
0.00108533
0.00108524
0.00108515
0.00108505
0.00108494
0.00108483
0.00108472
0.0010846
0.00108447
0.00108434
0.0010842
0.00108406
0.00108391
0.00108376
0.0010836
0.00108344
0.00108327
0.00108309
0.00108291
0.00108272
0.00108253
0.00108233
0.00108213
0.00108192
0.00108171
0.00108149
0.00108126
0.00108103
0.00108079
0.00108055
0.0010803
0.00108005
0.00107979
0.00107953
0.00107926
0.00107898
0.0010787
0.00107842
0.00107812
0.00107783
0.00107752
0.00107721
0.0010769
0.00107658
0.00107625
0.00107592
0.00107559
0.00107524
0.0010749
0.00107454
0.00107418
0.00107382
0.00107345
0.00107307
0.00107269
0.00107231
0.00107191
0.00107152
0.00107111
0.0010707
0.00107029
0.00106987
0.00106944
0.00106901
0.00106857
0.00106813
0.00106768
0.00106723
0.00106677
0.00106631
0.00106584
0.00106536
0.00106488
0.00106439
0.0010639
0.0010634
0.0010629
0.00106239
0.00106187
0.00106135
0.00106083
0.0010603
0.00105976
0.00105922
0.00105867
0.00105811
0.00105755
0.00105699
0.00105642
0.00105584
0.00105526
0.00105467
0.00105408
0.00105348
0.00105288
0.00105227
0.00105166
0.00105103
0.00105041
0.00104978
0.00104914
0.0010485
0.00104785
0.0010472
0.00104654
0.00104587
0.0010452
0.00104453
0.00104384
0.00104316
0.00104246
0.00104177
0.00104106
0.00104035
0.00103964
0.00103892
0.00103819
0.00103746
0.00103673
0.00103598
0.00103524
0.00103448
0.00103372
0.00103296
0.00103219
0.00103142
0.00103063
0.00102985
0.00102906
0.00102826
0.00102746
0.00102665
0.00102584
0.00102502
0.00102419
0.00102336
0.00102253
0.00102168
0.00102084
0.00101999
0.00101913
0.00101827
0.0010174
0.00101652
0.00101565
0.00101476
0.00101387
0.00101298
0.00101207
0.00101117
0.00101026
0.00100934
0.00100842
0.00100749
0.00100655
0.00100562
0.00100467
0.00100372
0.00100277
0.00100181
0.00100084
0.000999869
0.000998893
0.000997911
0.000996923
0.00099593
0.000994932
0.000993929
0.00099292
0.000991905
0.000990886
0.000989861
0.000988831
0.000987795
0.000986754
0.000985707
0.000984656
0.000983599
0.000982536
0.000981469
0.000980396
0.000979318
0.000978234
0.000977145
0.000976051
0.000974952
0.000973847
0.000972737
0.000971621
0.000970501
0.000969375
0.000968244
0.000967108
0.000965966
0.000964819
0.000963667
0.00096251
0.000961347
0.000960179
0.000959006
0.000957828
0.000956644
0.000955456
0.000954262
0.000953063
0.000951858
0.000950649
0.000949434
0.000948214
0.000946989
0.000945759
0.000944524
0.000943283
0.000942037
0.000940787
0.000939531
0.00093827
0.000937003
0.000935732
0.000934456
0.000933174
0.000931887
0.000930596
0.000929299
0.000927997
0.00092669
0.000925378
0.00092406
0.000922738
0.000921411
0.000920078
0.000918741
0.000917399
0.000916051
0.000914699
0.000913341
0.000911979
0.000910611
0.000909238
0.000907861
0.000906478
0.000905091
0.000903698
0.000902301
0.000900898
0.000899491
0.000898079
0.000896662
0.000895239
0.000893812
0.00089238
0.000890943
0.000889501
0.000888054
0.000886603
0.000885146
0.000883685
0.000882218
0.000880747
0.000879271
0.00087779
0.000876304
0.000874814
0.000873318
0.000871818
0.000870313
0.000868803
0.000867289
0.000865769
0.000864245
0.000862716
0.000861182
0.000859643
0.0008581
0.000856552
0.000854999
0.000853442
0.000851879
0.000850312
0.000848741
0.000847164
0.000845583
0.000843997
0.000842407
0.000840812
0.000839212
0.000837607
0.000835998
0.000834385
0.000832766
0.000831143
0.000829516
0.000827883
0.000826246
0.000824605
0.000822959
0.000821308
0.000819653
0.000817994
0.000816329
0.000814661
0.000812987
0.000811309
0.000809627
0.00080794
0.000806249
0.000804553
0.000802853
0.000801148
0.000799439
0.000797725
0.000796007
0.000794284
0.000792557
0.000790826
0.00078909
0.000787349
0.000785605
0.000783856
0.000782102
0.000780344
0.000778582
0.000776816
0.000775045
0.00077327
0.00077149
0.000769707
0.000767919
0.000766126
0.00076433
0.000762529
0.000760723
0.000758914
0.0007571
0.000755282
0.00075346
0.000751634
0.000749803
0.000747968
0.000746129
0.000744286
0.000742439
0.000740588
0.000738732
0.000736872
0.000735008
0.00073314
0.000731268
0.000729392
0.000727512
0.000725627
0.000723739
0.000721846
0.00071995
0.000718049
0.000716145
0.000714236
0.000712323
0.000710407
0.000708486
0.000706561
0.000704633
0.0007027
0.000700764
0.000698823
0.000696879
0.00069493
0.000692978
0.000691022
0.000689062
0.000687098
0.000685131
0.000683159
0.000681184
0.000679204
0.000677221
0.000675234
0.000673244
0.000671249
0.000669251
0.000667249
0.000665243
0.000663234
0.00066122
0.000659203
0.000657183
0.000655158
0.00065313
0.000651098
0.000649063
0.000647024
0.000644981
0.000642935
0.000640885
0.000638831
0.000636774
0.000634713
0.000632648
0.00063058
0.000628509
0.000626434
0.000624355
0.000622273
0.000620187
0.000618098
0.000616005
0.000613909
0.00061181
0.000609706
0.0006076
0.00060549
0.000603377
0.00060126
0.00059914
0.000597016
0.000594889
0.000592759
0.000590625
0.000588488
0.000586348
0.000584204
0.000582057
0.000579907
0.000577753
0.000575596
0.000573436
0.000571273
0.000569106
0.000566936
0.000564763
0.000562587
0.000560408
0.000558225
0.000556039
0.00055385
0.000551658
0.000549463
0.000547265
0.000545064
0.000542859
0.000540652
0.000538441
0.000536227
0.000534011
0.000531791
0.000529568
0.000527342
0.000525114
0.000522882
0.000520647
0.000518409
0.000516169
0.000513925
0.000511679
0.00050943
0.000507177
0.000504922
0.000502664
0.000500403
0.00049814
0.000495873
0.000493604
0.000491332
0.000489057
0.000486779
0.000484498
0.000482215
0.000479929
0.00047764
0.000475349
0.000473055
0.000470758
0.000468458
0.000466156
0.000463851
0.000461544
0.000459234
0.000456921
0.000454606
0.000452288
0.000449968
0.000447645
0.000445319
0.000442991
0.00044066
0.000438327
0.000435991
0.000433653
0.000431313
0.00042897
0.000426624
0.000424276
0.000421926
0.000419573
0.000417218
0.00041486
0.000412501
0.000410138
0.000407774
0.000405407
0.000403038
0.000400666
0.000398292
0.000395916
0.000393538
0.000391157
0.000388775
0.00038639
0.000384002
0.000381613
0.000379222
0.000376828
0.000374432
0.000372034
0.000369634
0.000367231
0.000364827
0.000362421
0.000360012
0.000357602
0.000355189
0.000352774
0.000350358
0.000347939
0.000345518
0.000343096
0.000340671
0.000338245
0.000335816
0.000333386
0.000330954
0.00032852
0.000326083
0.000323646
0.000321206
0.000318764
0.000316321
0.000313876
0.000311429
0.00030898
0.000306529
0.000304077
0.000301623
0.000299167
0.00029671
0.000294251
0.00029179
0.000289327
0.000286863
0.000284397
0.00028193
0.000279461
0.00027699
0.000274518
0.000272044
0.000269569
0.000267092
0.000264613
0.000262133
0.000259652
0.000257169
0.000254685
0.000252199
0.000249711
0.000247223
0.000244733
0.000242241
0.000239748
0.000237254
0.000234758
0.000232261
0.000229763
0.000227263
0.000224762
0.00022226
0.000219757
0.000217252
0.000214746
0.000212239
0.00020973
0.00020722
0.00020471
0.000202198
0.000199684
0.00019717
0.000194655
0.000192138
0.00018962
0.000187102
0.000184582
0.000182061
0.000179539
0.000177016
0.000174492
0.000171967
0.000169441
0.000166914
0.000164386
0.000161858
0.000159328
0.000156797
0.000154266
0.000151733
0.0001492
0.000146666
0.000144131
0.000141595
0.000139058
0.000136521
0.000133983
0.000131444
0.000128904
0.000126364
0.000123822
0.00012128
0.000118738
0.000116195
0.000113651
0.000111106
0.000108561
0.000106015
0.000103468
0.000100921
9.83738e-05
9.58256e-05
9.32768e-05
9.07275e-05
8.81777e-05
8.56274e-05
8.30766e-05
8.05253e-05
7.79736e-05
7.54214e-05
7.28688e-05
7.03158e-05
6.77623e-05
6.52085e-05
6.26543e-05
6.00997e-05
5.75448e-05
5.49896e-05
5.2434e-05
4.98782e-05
4.73221e-05
4.47656e-05
4.2209e-05
3.96521e-05
3.70949e-05
3.45376e-05
3.198e-05
2.94223e-05
2.68644e-05
2.43064e-05
2.17482e-05
1.91899e-05
1.66314e-05
1.40729e-05
1.15143e-05
8.95565e-06
6.39693e-06
3.83817e-06
1.27939e-06
-1.27939e-06
-3.83817e-06
-6.39693e-06
-8.95565e-06
-1.15143e-05
-1.40729e-05
-1.66314e-05
-1.91899e-05
-2.17482e-05
-2.43064e-05
-2.68644e-05
-2.94223e-05
-3.198e-05
-3.45376e-05
-3.70949e-05
-3.96521e-05
-4.2209e-05
-4.47656e-05
-4.73221e-05
-4.98782e-05
-5.2434e-05
-5.49896e-05
-5.75448e-05
-6.00997e-05
-6.26543e-05
-6.52085e-05
-6.77623e-05
-7.03158e-05
-7.28688e-05
-7.54214e-05
-7.79736e-05
-8.05253e-05
-8.30766e-05
-8.56274e-05
-8.81777e-05
-9.07275e-05
-9.32768e-05
-9.58256e-05
-9.83738e-05
-0.000100921
-0.000103468
-0.000106015
-0.000108561
-0.000111106
-0.000113651
-0.000116195
-0.000118738
-0.00012128
-0.000123822
-0.000126364
-0.000128904
-0.000131444
-0.000133983
-0.000136521
-0.000139058
-0.000141595
-0.000144131
-0.000146666
-0.0001492
-0.000151733
-0.000154266
-0.000156797
-0.000159328
-0.000161858
-0.000164386
-0.000166914
-0.000169441
-0.000171967
-0.000174492
-0.000177016
-0.000179539
-0.000182061
-0.000184582
-0.000187102
-0.00018962
-0.000192138
-0.000194655
-0.00019717
-0.000199684
-0.000202198
-0.00020471
-0.00020722
-0.00020973
-0.000212239
-0.000214746
-0.000217252
-0.000219757
-0.00022226
-0.000224762
-0.000227263
-0.000229763
-0.000232261
-0.000234758
-0.000237254
-0.000239748
-0.000242241
-0.000244733
-0.000247223
-0.000249711
-0.000252199
-0.000254685
-0.000257169
-0.000259652
-0.000262133
-0.000264613
-0.000267092
-0.000269569
-0.000272044
-0.000274518
-0.00027699
-0.000279461
-0.00028193
-0.000284397
-0.000286863
-0.000289327
-0.00029179
-0.000294251
-0.00029671
-0.000299167
-0.000301623
-0.000304077
-0.000306529
-0.00030898
-0.000311429
-0.000313876
-0.000316321
-0.000318764
-0.000321206
-0.000323646
-0.000326083
-0.00032852
-0.000330954
-0.000333386
-0.000335816
-0.000338245
-0.000340671
-0.000343096
-0.000345518
-0.000347939
-0.000350358
-0.000352774
-0.000355189
-0.000357602
-0.000360012
-0.000362421
-0.000364827
-0.000367231
-0.000369634
-0.000372034
-0.000374432
-0.000376828
-0.000379222
-0.000381613
-0.000384002
-0.00038639
-0.000388775
-0.000391157
-0.000393538
-0.000395916
-0.000398292
-0.000400666
-0.000403038
-0.000405407
-0.000407774
-0.000410138
-0.000412501
-0.00041486
-0.000417218
-0.000419573
-0.000421926
-0.000424276
-0.000426624
-0.00042897
-0.000431313
-0.000433653
-0.000435991
-0.000438327
-0.00044066
-0.000442991
-0.000445319
-0.000447645
-0.000449968
-0.000452288
-0.000454606
-0.000456921
-0.000459234
-0.000461544
-0.000463851
-0.000466156
-0.000468458
-0.000470758
-0.000473055
-0.000475349
-0.00047764
-0.000479929
-0.000482215
-0.000484498
-0.000486779
-0.000489057
-0.000491332
-0.000493604
-0.000495873
-0.00049814
-0.000500403
-0.000502664
-0.000504922
-0.000507177
-0.00050943
-0.000511679
-0.000513925
-0.000516169
-0.000518409
-0.000520647
-0.000522882
-0.000525114
-0.000527342
-0.000529568
-0.000531791
-0.000534011
-0.000536227
-0.000538441
-0.000540652
-0.000542859
-0.000545064
-0.000547265
-0.000549463
-0.000551658
-0.00055385
-0.000556039
-0.000558225
-0.000560408
-0.000562587
-0.000564763
-0.000566936
-0.000569106
-0.000571273
-0.000573436
-0.000575596
-0.000577753
-0.000579907
-0.000582057
-0.000584204
-0.000586348
-0.000588488
-0.000590625
-0.000592759
-0.000594889
-0.000597016
-0.00059914
-0.00060126
-0.000603377
-0.00060549
-0.0006076
-0.000609706
-0.00061181
-0.000613909
-0.000616005
-0.000618098
-0.000620187
-0.000622273
-0.000624355
-0.000626434
-0.000628509
-0.00063058
-0.000632648
-0.000634713
-0.000636774
-0.000638831
-0.000640885
-0.000642935
-0.000644981
-0.000647024
-0.000649063
-0.000651098
-0.00065313
-0.000655158
-0.000657183
-0.000659203
-0.00066122
-0.000663234
-0.000665243
-0.000667249
-0.000669251
-0.000671249
-0.000673244
-0.000675234
-0.000677221
-0.000679204
-0.000681184
-0.000683159
-0.000685131
-0.000687098
-0.000689062
-0.000691022
-0.000692978
-0.00069493
-0.000696879
-0.000698823
-0.000700764
-0.0007027
-0.000704633
-0.000706561
-0.000708486
-0.000710407
-0.000712323
-0.000714236
-0.000716145
-0.000718049
-0.00071995
-0.000721846
-0.000723739
-0.000725627
-0.000727512
-0.000729392
-0.000731268
-0.00073314
-0.000735008
-0.000736872
-0.000738732
-0.000740588
-0.000742439
-0.000744286
-0.000746129
-0.000747968
-0.000749803
-0.000751634
-0.00075346
-0.000755282
-0.0007571
-0.000758914
-0.000760723
-0.000762529
-0.00076433
-0.000766126
-0.000767919
-0.000769707
-0.00077149
-0.00077327
-0.000775045
-0.000776816
-0.000778582
-0.000780344
-0.000782102
-0.000783856
-0.000785605
-0.000787349
-0.00078909
-0.000790826
-0.000792557
-0.000794284
-0.000796007
-0.000797725
-0.000799439
-0.000801148
-0.000802853
-0.000804553
-0.000806249
-0.00080794
-0.000809627
-0.000811309
-0.000812987
-0.000814661
-0.000816329
-0.000817994
-0.000819653
-0.000821308
-0.000822959
-0.000824605
-0.000826246
-0.000827883
-0.000829516
-0.000831143
-0.000832766
-0.000834385
-0.000835998
-0.000837607
-0.000839212
-0.000840812
-0.000842407
-0.000843997
-0.000845583
-0.000847164
-0.000848741
-0.000850312
-0.000851879
-0.000853442
-0.000854999
-0.000856552
-0.0008581
-0.000859643
-0.000861182
-0.000862716
-0.000864245
-0.000865769
-0.000867289
-0.000868803
-0.000870313
-0.000871818
-0.000873318
-0.000874814
-0.000876304
-0.00087779
-0.000879271
-0.000880747
-0.000882218
-0.000883685
-0.000885146
-0.000886603
-0.000888054
-0.000889501
-0.000890943
-0.00089238
-0.000893812
-0.000895239
-0.000896662
-0.000898079
-0.000899491
-0.000900898
-0.000902301
-0.000903698
-0.000905091
-0.000906478
-0.000907861
-0.000909238
-0.000910611
-0.000911979
-0.000913341
-0.000914699
-0.000916051
-0.000917399
-0.000918741
-0.000920078
-0.000921411
-0.000922738
-0.00092406
-0.000925378
-0.00092669
-0.000927997
-0.000929299
-0.000930596
-0.000931887
-0.000933174
-0.000934456
-0.000935732
-0.000937003
-0.00093827
-0.000939531
-0.000940787
-0.000942037
-0.000943283
-0.000944524
-0.000945759
-0.000946989
-0.000948214
-0.000949434
-0.000950649
-0.000951858
-0.000953063
-0.000954262
-0.000955456
-0.000956644
-0.000957828
-0.000959006
-0.000960179
-0.000961347
-0.00096251
-0.000963667
-0.000964819
-0.000965966
-0.000967108
-0.000968244
-0.000969375
-0.000970501
-0.000971621
-0.000972737
-0.000973847
-0.000974952
-0.000976051
-0.000977145
-0.000978234
-0.000979318
-0.000980396
-0.000981469
-0.000982536
-0.000983599
-0.000984656
-0.000985707
-0.000986754
-0.000987795
-0.000988831
-0.000989861
-0.000990886
-0.000991905
-0.00099292
-0.000993929
-0.000994932
-0.00099593
-0.000996923
-0.000997911
-0.000998893
-0.000999869
-0.00100084
-0.00100181
-0.00100277
-0.00100372
-0.00100467
-0.00100562
-0.00100655
-0.00100749
-0.00100842
-0.00100934
-0.00101026
-0.00101117
-0.00101207
-0.00101298
-0.00101387
-0.00101476
-0.00101565
-0.00101652
-0.0010174
-0.00101827
-0.00101913
-0.00101999
-0.00102084
-0.00102168
-0.00102253
-0.00102336
-0.00102419
-0.00102502
-0.00102584
-0.00102665
-0.00102746
-0.00102826
-0.00102906
-0.00102985
-0.00103063
-0.00103142
-0.00103219
-0.00103296
-0.00103372
-0.00103448
-0.00103524
-0.00103598
-0.00103673
-0.00103746
-0.00103819
-0.00103892
-0.00103964
-0.00104035
-0.00104106
-0.00104177
-0.00104246
-0.00104316
-0.00104384
-0.00104453
-0.0010452
-0.00104587
-0.00104654
-0.0010472
-0.00104785
-0.0010485
-0.00104914
-0.00104978
-0.00105041
-0.00105103
-0.00105166
-0.00105227
-0.00105288
-0.00105348
-0.00105408
