# Pulseq sequence file
# Created by MATLAB mr toolbox

# Format of blocks:
#  #  D RF  GX  GY  GZ ADC
[BLOCKS]
   1  0  1   0   0   1  0
   2  1  0   0   0   0  0
   3  0  2   0   0   1  0
   4  0  0   3   0   2  0
   5  0  0   0   0   4  0
   6  0  0   5   6   6  0
   7  0  0   7   0   0  1
   8  2  0   0   0   0  0
   9  0  1   0   0   1  0
  10  1  0   0   0   0  0
  11  0  2   0   0   1  0
  12  0  0   3   0   2  0
  13  0  0   0   0   4  0
  14  0  0   5   8   8  0
  15  0  0   7   0   0  1
  16  2  0   0   0   0  0
  17  0  1   0   0   1  0
  18  1  0   0   0   0  0
  19  0  2   0   0   1  0
  20  0  0   3   0   2  0
  21  0  0   0   0   4  0
  22  0  0   5   9   9  0
  23  0  0   7   0   0  1
  24  2  0   0   0   0  0
  25  0  1   0   0   1  0
  26  1  0   0   0   0  0
  27  0  2   0   0   1  0
  28  0  0   3   0   2  0
  29  0  0   0   0   4  0
  30  0  0   5  10  10  0
  31  0  0   7   0   0  1
  32  2  0   0   0   0  0
  33  0  1   0   0   1  0
  34  1  0   0   0   0  0
  35  0  2   0   0   1  0
  36  0  0   3   0   2  0
  37  0  0   0   0   4  0
  38  0  0   5  11  11  0
  39  0  0   7   0   0  1
  40  2  0   0   0   0  0
  41  0  1   0   0   1  0
  42  1  0   0   0   0  0
  43  0  2   0   0   1  0
  44  0  0   3   0   2  0
  45  0  0   0   0   4  0
  46  0  0   5  12  12  0
  47  0  0   7   0   0  1
  48  2  0   0   0   0  0
  49  0  1   0   0   1  0
  50  1  0   0   0   0  0
  51  0  2   0   0   1  0
  52  0  0   3   0   2  0
  53  0  0   0   0   4  0
  54  0  0   5  13  13  0
  55  0  0   7   0   0  1
  56  2  0   0   0   0  0
  57  0  1   0   0   1  0
  58  1  0   0   0   0  0
  59  0  2   0   0   1  0
  60  0  0   3   0   2  0
  61  0  0   0   0   4  0
  62  0  0   5  14  14  0
  63  0  0   7   0   0  1
  64  2  0   0   0   0  0
  65  0  1   0   0   1  0
  66  1  0   0   0   0  0
  67  0  2   0   0   1  0
  68  0  0   3   0   2  0
  69  0  0   0   0   4  0
  70  0  0   5  15  15  0
  71  0  0   7   0   0  1
  72  2  0   0   0   0  0
  73  0  1   0   0   1  0
  74  1  0   0   0   0  0
  75  0  2   0   0   1  0
  76  0  0   3   0   2  0
  77  0  0   0   0   4  0
  78  0  0   5  16  16  0
  79  0  0   7   0   0  1
  80  2  0   0   0   0  0
  81  0  1   0   0   1  0
  82  1  0   0   0   0  0
  83  0  2   0   0   1  0
  84  0  0   3   0   2  0
  85  0  0   0   0   4  0
  86  0  0   5  17  17  0
  87  0  0   7   0   0  1
  88  2  0   0   0   0  0
  89  0  1   0   0   1  0
  90  1  0   0   0   0  0
  91  0  2   0   0   1  0
  92  0  0   3   0   2  0
  93  0  0   0   0   4  0
  94  0  0   5  18  18  0
  95  0  0   7   0   0  1
  96  2  0   0   0   0  0
  97  0  1   0   0   1  0
  98  1  0   0   0   0  0
  99  0  2   0   0   1  0
 100  0  0   3   0   2  0
 101  0  0   0   0   4  0
 102  0  0   5  19  19  0
 103  0  0   7   0   0  1
 104  2  0   0   0   0  0
 105  0  1   0   0   1  0
 106  1  0   0   0   0  0
 107  0  2   0   0   1  0
 108  0  0   3   0   2  0
 109  0  0   0   0   4  0
 110  0  0   5  20  20  0
 111  0  0   7   0   0  1
 112  2  0   0   0   0  0
 113  0  1   0   0   1  0
 114  1  0   0   0   0  0
 115  0  2   0   0   1  0
 116  0  0   3   0   2  0
 117  0  0   0   0   4  0
 118  0  0   5  21  21  0
 119  0  0   7   0   0  1
 120  2  0   0   0   0  0
 121  0  1   0   0   1  0
 122  1  0   0   0   0  0
 123  0  2   0   0   1  0
 124  0  0   3   0   2  0
 125  0  0   0   0   4  0
 126  0  0   5  22  22  0
 127  0  0   7   0   0  1
 128  2  0   0   0   0  0
 129  0  1   0   0   1  0
 130  1  0   0   0   0  0
 131  0  2   0   0   1  0
 132  0  0   3   0   2  0
 133  0  0   0   0   4  0
 134  0  0   5  23  23  0
 135  0  0   7   0   0  1
 136  2  0   0   0   0  0
 137  0  1   0   0   1  0
 138  1  0   0   0   0  0
 139  0  2   0   0   1  0
 140  0  0   3   0   2  0
 141  0  0   0   0   4  0
 142  0  0   5  24  24  0
 143  0  0   7   0   0  1
 144  2  0   0   0   0  0
 145  0  1   0   0   1  0
 146  1  0   0   0   0  0
 147  0  2   0   0   1  0
 148  0  0   3   0   2  0
 149  0  0   0   0   4  0
 150  0  0   5  25  25  0
 151  0  0   7   0   0  1
 152  2  0   0   0   0  0
 153  0  1   0   0   1  0
 154  1  0   0   0   0  0
 155  0  2   0   0   1  0
 156  0  0   3   0   2  0
 157  0  0   0   0   4  0
 158  0  0   5  26  26  0
 159  0  0   7   0   0  1
 160  2  0   0   0   0  0
 161  0  1   0   0   1  0
 162  1  0   0   0   0  0
 163  0  2   0   0   1  0
 164  0  0   3   0   2  0
 165  0  0   0   0   4  0
 166  0  0   5  27  27  0
 167  0  0   7   0   0  1
 168  2  0   0   0   0  0
 169  0  1   0   0   1  0
 170  1  0   0   0   0  0
 171  0  2   0   0   1  0
 172  0  0   3   0   2  0
 173  0  0   0   0   4  0
 174  0  0   5  28  28  0
 175  0  0   7   0   0  1
 176  2  0   0   0   0  0
 177  0  1   0   0   1  0
 178  1  0   0   0   0  0
 179  0  2   0   0   1  0
 180  0  0   3   0   2  0
 181  0  0   0   0   4  0
 182  0  0   5  29  29  0
 183  0  0   7   0   0  1
 184  2  0   0   0   0  0
 185  0  1   0   0   1  0
 186  1  0   0   0   0  0
 187  0  2   0   0   1  0
 188  0  0   3   0   2  0
 189  0  0   0   0   4  0
 190  0  0   5  30  30  0
 191  0  0   7   0   0  1
 192  2  0   0   0   0  0
 193  0  1   0   0   1  0
 194  1  0   0   0   0  0
 195  0  2   0   0   1  0
 196  0  0   3   0   2  0
 197  0  0   0   0   4  0
 198  0  0   5  31  31  0
 199  0  0   7   0   0  1
 200  2  0   0   0   0  0
 201  0  1   0   0   1  0
 202  1  0   0   0   0  0
 203  0  2   0   0   1  0
 204  0  0   3   0   2  0
 205  0  0   0   0   4  0
 206  0  0   5  32  32  0
 207  0  0   7   0   0  1
 208  2  0   0   0   0  0
 209  0  1   0   0   1  0
 210  1  0   0   0   0  0
 211  0  2   0   0   1  0
 212  0  0   3   0   2  0
 213  0  0   0   0   4  0
 214  0  0   5  33  33  0
 215  0  0   7   0   0  1
 216  2  0   0   0   0  0
 217  0  1   0   0   1  0
 218  1  0   0   0   0  0
 219  0  2   0   0   1  0
 220  0  0   3   0   2  0
 221  0  0   0   0   4  0
 222  0  0   5  34  34  0
 223  0  0   7   0   0  1
 224  2  0   0   0   0  0
 225  0  1   0   0   1  0
 226  1  0   0   0   0  0
 227  0  2   0   0   1  0
 228  0  0   3   0   2  0
 229  0  0   0   0   4  0
 230  0  0   5  35  35  0
 231  0  0   7   0   0  1
 232  2  0   0   0   0  0
 233  0  1   0   0   1  0
 234  1  0   0   0   0  0
 235  0  2   0   0   1  0
 236  0  0   3   0   2  0
 237  0  0   0   0   4  0
 238  0  0   5  36  36  0
 239  0  0   7   0   0  1
 240  2  0   0   0   0  0
 241  0  1   0   0   1  0
 242  1  0   0   0   0  0
 243  0  2   0   0   1  0
 244  0  0   3   0   2  0
 245  0  0   0   0   4  0
 246  0  0   5  37  37  0
 247  0  0   7   0   0  1
 248  2  0   0   0   0  0
 249  0  1   0   0   1  0
 250  1  0   0   0   0  0
 251  0  2   0   0   1  0
 252  0  0   3   0   2  0
 253  0  0   0   0   4  0
 254  0  0   5  38  38  0
 255  0  0   7   0   0  1
 256  2  0   0   0   0  0
 257  0  1   0   0   1  0
 258  1  0   0   0   0  0
 259  0  2   0   0   1  0
 260  0  0   3   0   2  0
 261  0  0   0   0   4  0
 262  0  0   5  39  39  0
 263  0  0   7   0   0  1
 264  2  0   0   0   0  0
 265  0  1   0   0   1  0
 266  1  0   0   0   0  0
 267  0  2   0   0   1  0
 268  0  0   3   0   2  0
 269  0  0   0   0   4  0
 270  0  0   5  40  40  0
 271  0  0   7   0   0  1
 272  2  0   0   0   0  0
 273  0  1   0   0   1  0
 274  1  0   0   0   0  0
 275  0  2   0   0   1  0
 276  0  0   3   0   2  0
 277  0  0   0   0   4  0
 278  0  0   5  41  41  0
 279  0  0   7   0   0  1
 280  2  0   0   0   0  0
 281  0  1   0   0   1  0
 282  1  0   0   0   0  0
 283  0  2   0   0   1  0
 284  0  0   3   0   2  0
 285  0  0   0   0   4  0
 286  0  0   5  42  42  0
 287  0  0   7   0   0  1
 288  2  0   0   0   0  0
 289  0  1   0   0   1  0
 290  1  0   0   0   0  0
 291  0  2   0   0   1  0
 292  0  0   3   0   2  0
 293  0  0   0   0   4  0
 294  0  0   5  43  43  0
 295  0  0   7   0   0  1
 296  2  0   0   0   0  0
 297  0  1   0   0   1  0
 298  1  0   0   0   0  0
 299  0  2   0   0   1  0
 300  0  0   3   0   2  0
 301  0  0   0   0   4  0
 302  0  0   5  44  44  0
 303  0  0   7   0   0  1
 304  2  0   0   0   0  0
 305  0  1   0   0   1  0
 306  1  0   0   0   0  0
 307  0  2   0   0   1  0
 308  0  0   3   0   2  0
 309  0  0   0   0   4  0
 310  0  0   5  45  45  0
 311  0  0   7   0   0  1
 312  2  0   0   0   0  0
 313  0  1   0   0   1  0
 314  1  0   0   0   0  0
 315  0  2   0   0   1  0
 316  0  0   3   0   2  0
 317  0  0   0   0   4  0
 318  0  0   5  46  46  0
 319  0  0   7   0   0  1
 320  2  0   0   0   0  0
 321  0  1   0   0   1  0
 322  1  0   0   0   0  0
 323  0  2   0   0   1  0
 324  0  0   3   0   2  0
 325  0  0   0   0   4  0
 326  0  0   5  47  47  0
 327  0  0   7   0   0  1
 328  2  0   0   0   0  0
 329  0  1   0   0   1  0
 330  1  0   0   0   0  0
 331  0  2   0   0   1  0
 332  0  0   3   0   2  0
 333  0  0   0   0   4  0
 334  0  0   5  48  48  0
 335  0  0   7   0   0  1
 336  2  0   0   0   0  0
 337  0  1   0   0   1  0
 338  1  0   0   0   0  0
 339  0  2   0   0   1  0
 340  0  0   3   0   2  0
 341  0  0   0   0   4  0
 342  0  0   5  49  49  0
 343  0  0   7   0   0  1
 344  2  0   0   0   0  0
 345  0  1   0   0   1  0
 346  1  0   0   0   0  0
 347  0  2   0   0   1  0
 348  0  0   3   0   2  0
 349  0  0   0   0   4  0
 350  0  0   5  50  50  0
 351  0  0   7   0   0  1
 352  2  0   0   0   0  0
 353  0  1   0   0   1  0
 354  1  0   0   0   0  0
 355  0  2   0   0   1  0
 356  0  0   3   0   2  0
 357  0  0   0   0   4  0
 358  0  0   5  51  51  0
 359  0  0   7   0   0  1
 360  2  0   0   0   0  0
 361  0  1   0   0   1  0
 362  1  0   0   0   0  0
 363  0  2   0   0   1  0
 364  0  0   3   0   2  0
 365  0  0   0   0   4  0
 366  0  0   5  52  52  0
 367  0  0   7   0   0  1
 368  2  0   0   0   0  0
 369  0  1   0   0   1  0
 370  1  0   0   0   0  0
 371  0  2   0   0   1  0
 372  0  0   3   0   2  0
 373  0  0   0   0   4  0
 374  0  0   5  53  53  0
 375  0  0   7   0   0  1
 376  2  0   0   0   0  0
 377  0  1   0   0   1  0
 378  1  0   0   0   0  0
 379  0  2   0   0   1  0
 380  0  0   3   0   2  0
[RF]
1      329.152 1 2 0 0
2      109.717 1 2 0 0

# Format of trapezoid gradients:
# id amplitude rise flat fall
# ..      Hz/m   us   us   us
[TRAP]
 1       266667  40 3000  40
 2      -277626  40 1420  40
 3       613636  90  460  90
 4       277626  40 1420  40
 5      -613636  90  460  90
 6      -571429  80  480  80
 7       500000  70 1280  70
 8      -562500  80  480  80
 9      -553571  80  480  80
10      -544643  80  480  80
11      -535714  80  480  80
12      -526786  80  480  80
13      -517857  80  480  80
14      -500000  70  500  70
15      -491228  70  500  70
16      -482456  70  500  70
17      -473684  70  500  70
18      -464912  70  500  70
19      -456140  70  500  70
20      -447368  70  500  70
21      -431034  60  520  60
22      -422414  60  520  60
23      -413793  60  520  60
24      -405172  60  520  60
25      -396552  60  520  60
26      -387931  60  520  60
27      -379310  60  520  60
28      -370690  60  520  60
29      -355932  50  540  50
30      -347458  50  540  50
31      -338983  50  540  50
32      -330508  50  540  50
33      -322034  50  540  50
34      -313559  50  540  50
35      -305085  50  540  50
36      -296610  50  540  50
37      -283333  40  560  40
38      -275000  40  560  40
39      -266667  40  560  40
40      -258333  40  560  40
41      -250000  40  560  40
42      -241667  40  560  40
43      -233333  40  560  40
44      -225000  40  560  40
45      -213115  30  580  30
46      -204918  30  580  30
47      -196721  30  580  30
48      -188525  30  580  30
49      -180328  30  580  30
50      -172131  30  580  30
51      -163934  30  580  30
52      -155738  30  580  30
53      -147541  30  580  30
54      -137097  20  600  20
55      -129032  20  600  20
56      -120968  20  600  20
57      -112903  20  600  20
58      -104839  20  600  20
59     -96774.2  20  600  20
60     -88709.7  20  600  20
61     -80645.2  20  600  20
62     -71428.6  10  620  10
63     -63492.1  10  620  10
64     -55555.6  10  620  10
65       -47619  10  620  10
66     -39682.5  10  620  10
67       -31746  10  620  10
68     -23809.5  10  620  10
69       -15873  10  620  10
70     -7936.51  10  620  10
71            0   0  640   0
72      7936.51  10  620  10
73        15873  10  620  10
74      23809.5  10  620  10
75        31746  10  620  10
76      39682.5  10  620  10
77        47619  10  620  10
78      55555.6  10  620  10
79      63492.1  10  620  10
80      71428.6  10  620  10
81      80645.2  20  600  20
82      88709.7  20  600  20
83      96774.2  20  600  20
84       104839  20  600  20
85       112903  20  600  20
86       120968  20  600  20
87       129032  20  600  20
88       137097  20  600  20
89       147541  30  580  30
90       155738  30  580  30
91       163934  30  580  30
92       172131  30  580  30
93       180328  30  580  30
94       188525  30  580  30
95       196721  30  580  30
96       204918  30  580  30
97       213115  30  580  30
98       225000  40  560  40
99       233333  40  560  40
100       241667  40  560  40
101       250000  40  560  40
102       258333  40  560  40
103       266667  40  560  40
104       275000  40  560  40
105       283333  40  560  40
106       296610  50  540  50
107       305085  50  540  50
108       313559  50  540  50
109       322034  50  540  50
110       330508  50  540  50
111       338983  50  540  50
112       347458  50  540  50
113       355932  50  540  50
114       370690  60  520  60
115       379310  60  520  60
116       387931  60  520  60
117       396552  60  520  60
118       405172  60  520  60
119       413793  60  520  60
120       422414  60  520  60
121       431034  60  520  60
122       447368  70  500  70
123       456140  70  500  70
124       464912  70  500  70
125       473684  70  500  70
126       482456  70  500  70
127       491228  70  500  70
128       500000  70  500  70
129       517857  80  480  80
130       526786  80  480  80
131       535714  80  480  80
132       544643  80  480  80
133       553571  80  480  80
134       562500  80  480  80

# Format of ADC events:
# id num dwell delay freq phase
# ..  ..    ns    us   Hz   rad
[ADC]
 1 128  10000 7.000000e+01 0 0

# Format of delays:
# id delay (us)
[DELAYS]
1 2000
2 10580

# Sequence Shapes
[SHAPES]

shape_id 1
num_samples 3040
0
0
41
2.71337e-08
4.47714e-08
6.68458e-08
9.33671e-08
1.24346e-07
1.59791e-07
1.99713e-07
2.44122e-07
2.93026e-07
3.46434e-07
4.04355e-07
4.66797e-07
5.33769e-07
6.05277e-07
6.81331e-07
7.61936e-07
8.47101e-07
9.36831e-07
1.03113e-06
1.13002e-06
1.23348e-06
1.34154e-06
1.45419e-06
1.57145e-06
1.6933e-06
1.81977e-06
1.95086e-06
2.08656e-06
2.22689e-06
2.37184e-06
2.52142e-06
2.67564e-06
2.83449e-06
2.99798e-06
3.1661e-06
3.33887e-06
3.51628e-06
3.69834e-06
3.88504e-06
4.07639e-06
4.27238e-06
4.47302e-06
4.67831e-06
4.88825e-06
5.10283e-06
5.32205e-06
5.54592e-06
5.77443e-06
6.00758e-06
6.24537e-06
6.48779e-06
6.73484e-06
6.98653e-06
7.24284e-06
7.50378e-06
7.76933e-06
8.0395e-06
8.31428e-06
8.59366e-06
8.87765e-06
9.16623e-06
9.4594e-06
9.75716e-06
1.00595e-05
1.03664e-05
1.06779e-05
1.09939e-05
1.13145e-05
1.16396e-05
1.19692e-05
1.23034e-05
1.26421e-05
1.29853e-05
1.3333e-05
1.36852e-05
1.40419e-05
1.4403e-05
1.47686e-05
1.51387e-05
1.55132e-05
1.58921e-05
1.62754e-05
1.66632e-05
1.70553e-05
1.74518e-05
1.78527e-05
1.82579e-05
1.86675e-05
1.90814e-05
1.94996e-05
1.99221e-05
2.03489e-05
2.07799e-05
2.12152e-05
2.16548e-05
2.20986e-05
2.25466e-05
2.29987e-05
2.34551e-05
2.39156e-05
2.43802e-05
2.4849e-05
2.53219e-05
2.57988e-05
2.62798e-05
2.67649e-05
2.7254e-05
2.77471e-05
2.82443e-05
2.87453e-05
2.92504e-05
2.97593e-05
3.02722e-05
3.0789e-05
3.13096e-05
3.18341e-05
3.23624e-05
3.28945e-05
3.34304e-05
3.397e-05
3.45134e-05
3.50605e-05
3.56112e-05
3.61657e-05
3.67237e-05
3.72854e-05
3.78507e-05
3.84195e-05
3.89919e-05
3.95678e-05
4.01472e-05
4.073e-05
4.13163e-05
4.1906e-05
4.2499e-05
4.30954e-05
4.36951e-05
4.42982e-05
4.49045e-05
4.5514e-05
4.61267e-05
4.67427e-05
4.73617e-05
4.79839e-05
4.86092e-05
4.92376e-05
4.9869e-05
5.05033e-05
5.11407e-05
5.1781e-05
5.24242e-05
5.30702e-05
5.37192e-05
5.43709e-05
5.50254e-05
5.56826e-05
5.63425e-05
5.70052e-05
5.76704e-05
5.83383e-05
5.90087e-05
5.96817e-05
6.03572e-05
6.10352e-05
6.17155e-05
6.23983e-05
6.30835e-05
6.37709e-05
6.44607e-05
6.51527e-05
6.58469e-05
6.65433e-05
6.72419e-05
6.79425e-05
6.86452e-05
6.93499e-05
7.00566e-05
7.07653e-05
7.14759e-05
7.21883e-05
7.29026e-05
7.36186e-05
7.43364e-05
7.50559e-05
7.57771e-05
7.64999e-05
7.72243e-05
7.79502e-05
7.86776e-05
7.94065e-05
8.01368e-05
8.08685e-05
8.16015e-05
8.23358e-05
8.30714e-05
8.38082e-05
8.45461e-05
8.52851e-05
8.60252e-05
8.67664e-05
8.75085e-05
8.82515e-05
8.89955e-05
8.97403e-05
9.04859e-05
9.12322e-05
9.19793e-05
9.2727e-05
9.34754e-05
9.42243e-05
9.49738e-05
9.57237e-05
9.64741e-05
9.72248e-05
9.79759e-05
9.87273e-05
9.94789e-05
0.000100231
0.000100983
0.000101735
0.000102487
0.000103239
0.000103991
0.000104743
0.000105495
0.000106246
0.000106998
0.000107749
0.000108499
0.00010925
0.00011
0.000110749
0.000111498
0.000112246
0.000112993
0.00011374
0.000114486
0.000115232
0.000115976
0.00011672
0.000117462
0.000118204
0.000118944
0.000119683
0.000120421
0.000121158
0.000121894
0.000122628
0.000123361
0.000124092
0.000124822
0.000125551
0.000126277
0.000127002
0.000127726
0.000128447
0.000129167
0.000129885
0.000130601
0.000131315
0.000132027
0.000132736
0.000133444
0.000134149
0.000134853
0.000135553
0.000136252
0.000136948
0.000137641
0.000138332
0.00013902
0.000139706
0.000140389
0.000141069
0.000141746
0.000142421
0.000143092
0.00014376
0.000144426
0.000145088
0.000145747
0.000146403
0.000147055
0.000147704
0.00014835
0.000148992
0.000149631
0.000150266
0.000150897
0.000151525
0.000152149
0.000152769
0.000153385
0.000153997
0.000154606
0.00015521
0.00015581
0.000156406
0.000156998
0.000157585
0.000158168
0.000158746
0.000159321
0.00015989
0.000160455
0.000161015
0.000161571
0.000162122
0.000162668
0.000163209
0.000163745
0.000164276
0.000164802
0.000165323
0.000165839
0.000166349
0.000166854
0.000167354
0.000167848
0.000168337
0.00016882
0.000169298
0.00016977
0.000170236
0.000170697
0.000171151
0.0001716
0.000172043
0.000172479
0.00017291
0.000173334
0.000173753
0.000174165
0.00017457
0.000174969
0.000175362
0.000175748
0.000176128
0.000176501
0.000176867
0.000177227
0.00017758
0.000177926
0.000178265
0.000178597
0.000178922
0.000179239
0.00017955
0.000179853
0.00018015
0.000180438
0.00018072
0.000180994
0.00018126
0.000181519
0.00018177
0.000182013
0.000182249
0.000182477
0.000182697
0.000182909
0.000183113
0.000183309
0.000183497
0.000183677
0.000183848
0.000184011
0.000184166
0.000184313
0.000184451
0.00018458
0.000184701
0.000184813
0.000184917
0.000185012
0.000185098
0.000185175
0.000185243
0.000185303
0.000185353
0.000185394
0.000185426
0.000185449
0.000185463
0.000185463
1
0.000185447
0.000185423
0.00018539
0.000185346
0.000185294
0.000185231
0.000185159
0.000185077
0.000184985
0.000184883
0.000184771
0.00018465
0.000184518
0.000184376
0.000184223
0.000184061
0.000183888
0.000183705
0.000183511
0.000183308
0.000183093
0.000182868
0.000182632
0.000182386
0.000182129
0.000181861
0.000181583
0.000181293
0.000180993
0.000180682
0.000180359
0.000180026
0.000179681
0.000179326
0.000178959
0.000178581
0.000178191
0.00017779
0.000177378
0.000176954
0.000176519
0.000176072
0.000175614
0.000175144
0.000174662
0.000174168
0.000173663
0.000173146
0.000172617
0.000172076
0.000171523
0.000170958
0.000170381
0.000169792
0.000169191
0.000168577
0.000167951
0.000167313
0.000166663
0.000166
0.000165325
0.000164637
0.000163937
0.000163225
0.000162499
0.000161761
0.000161011
0.000160247
0.000159471
0.000158682
0.000157881
0.000157066
0.000156239
0.000155398
0.000154545
0.000153678
0.000152799
0.000151906
0.000151
0.000150081
0.000149149
0.000148204
0.000147245
0.000146273
0.000145287
0.000144289
0.000143276
0.000142251
0.000141211
0.000140158
0.000139092
0.000138012
0.000136918
0.000135811
0.00013469
0.000133555
0.000132407
0.000131244
0.000130068
0.000128878
0.000127674
0.000126456
0.000125225
0.000123979
0.000122719
0.000121445
0.000120157
0.000118855
0.000117539
0.000116209
0.000114864
0.000113505
0.000112132
0.000110745
0.000109344
0.000107928
0.000106498
0.000105053
0.000103595
0.000102121
0.000100634
9.91314e-05
9.76148e-05
9.60837e-05
9.45381e-05
9.29779e-05
9.14032e-05
8.98139e-05
8.821e-05
8.65915e-05
8.49584e-05
8.33106e-05
8.16481e-05
7.9971e-05
7.82791e-05
7.65725e-05
7.48512e-05
7.31151e-05
7.13642e-05
6.95986e-05
6.78181e-05
6.60228e-05
6.42127e-05
6.23878e-05
6.0548e-05
5.86933e-05
5.68237e-05
5.49393e-05
5.30399e-05
5.11256e-05
4.91964e-05
4.72523e-05
4.52932e-05
4.33191e-05
4.13301e-05
3.93261e-05
3.73071e-05
3.52731e-05
3.32242e-05
3.11602e-05
2.90812e-05
2.69872e-05
2.48782e-05
2.27541e-05
2.0615e-05
1.84609e-05
1.62917e-05
1.41075e-05
1.19083e-05
9.694e-06
7.46466e-06
5.22027e-06
2.96082e-06
6.86331e-07
-1.60321e-06
-3.90781e-06
-6.22745e-06
-8.56214e-06
-1.09119e-05
-1.32767e-05
-1.56565e-05
-1.80513e-05
-2.04612e-05
-2.28862e-05
-2.53261e-05
-2.77811e-05
-3.0251e-05
-3.2736e-05
-3.5236e-05
-3.7751e-05
-4.0281e-05
-4.28259e-05
-4.53858e-05
-4.79607e-05
-5.05505e-05
-5.31553e-05
-5.5775e-05
-5.84096e-05
-6.10591e-05
-6.37235e-05
-6.64028e-05
-6.9097e-05
-7.1806e-05
-7.45299e-05
-7.72686e-05
-8.00221e-05
-8.27904e-05
-8.55736e-05
-8.83714e-05
-9.1184e-05
-9.40114e-05
-9.68535e-05
-9.97102e-05
-0.000102582
-0.000105468
-0.000108369
-0.000111284
-0.000114214
-0.000117158
-0.000120118
-0.000123091
-0.000126079
-0.000129082
-0.000132099
-0.000135131
-0.000138177
-0.000141237
-0.000144312
-0.000147401
-0.000150504
-0.000153622
-0.000156754
-0.0001599
-0.00016306
-0.000166235
-0.000169423
-0.000172626
-0.000175843
-0.000179074
-0.000182319
-0.000185578
-0.000188851
-0.000192138
-0.000195438
-0.000198753
-0.000202081
-0.000205423
-0.000208779
-0.000212149
-0.000215532
-0.000218929
-0.00022234
-0.000225764
-0.000229202
-0.000232653
-0.000236118
-0.000239596
-0.000243087
-0.000246592
-0.00025011
-0.000253641
-0.000257186
-0.000260743
-0.000264314
-0.000267898
-0.000271495
-0.000275105
-0.000278727
-0.000282363
-0.000286012
-0.000289673
-0.000293347
-0.000297034
-0.000300733
-0.000304445
-0.00030817
-0.000311907
-0.000315657
-0.000319419
-0.000323193
-0.00032698
-0.000330779
-0.00033459
-0.000338413
-0.000342249
-0.000346096
-0.000349956
-0.000353827
-0.00035771
-0.000361606
-0.000365512
-0.000369431
-0.000373361
-0.000377303
-0.000381257
-0.000385221
-0.000389198
-0.000393185
-0.000397184
-0.000401194
-0.000405216
-0.000409248
-0.000413292
-0.000417346
-0.000421412
-0.000425488
-0.000429575
-0.000433673
-0.000437782
-0.000441901
-0.000446031
-0.000450171
-0.000454321
-0.000458482
-0.000462654
-0.000466835
-0.000471027
-0.000475228
-0.00047944
-0.000483661
-0.000487893
-0.000492134
-0.000496385
-0.000500646
-0.000504916
-0.000509196
-0.000513485
-0.000517783
-0.000522091
-0.000526408
-0.000530734
-0.00053507
-0.000539414
-0.000543767
-0.000548129
-0.0005525
-0.000556879
-0.000561267
-0.000565663
-0.000570068
-0.000574482
-0.000578904
-0.000583333
-0.000587771
-0.000592217
-0.000596671
-0.000601133
-0.000605603
-0.000610081
-0.000614566
-0.000619058
-0.000623559
-0.000628066
-0.000632581
-0.000637103
-0.000641632
-0.000646169
-0.000650712
-0.000655262
-0.000659819
-0.000664383
0.000668953
0.00067353
0.000678113
0.000682703
0.000687299
0.000691901
0.000696509
0.000701123
0.000705743
0.000710369
0.000715001
0.000719638
0.000724281
0.00072893
0.000733583
0.000738242
0.000742907
0.000747576
0.00075225
0.000756929
0.000761613
0.000766302
0.000770995
0.000775693
0.000780396
0.000785102
0.000789813
0.000794528
0.000799247
0.00080397
0.000808697
0.000813428
0.000818162
0.0008229
0.000827641
0.000832386
0.000837134
0.000841885
0.000846639
0.000851396
0.000856156
0.000860918
0.000865684
0.000870452
0.000875222
0.000879995
0.00088477
0.000889547
0.000894326
0.000899107
0.00090389
0.000908675
0.000913461
0.000918249
0.000923038
0.000927829
0.00093262
0.000937413
0.000942207
0.000947002
0.000951797
0.000956594
0.000961391
0.000966188
0.000970985
0.000975783
0.000980581
0.00098538
0.000990178
0.000994975
0.000999773
0.00100457
0.00100937
0.00101416
0.00101896
0.00102375
0.00102855
0.00103334
0.00103813
0.00104292
0.00104771
0.0010525
0.00105728
0.00106207
0.00106685
0.00107163
0.00107641
0.00108118
0.00108596
0.00109073
0.0010955
0.00110026
0.00110503
0.00110979
0.00111455
0.0011193
0.00112405
0.0011288
0.00113354
0.00113829
0.00114302
0.00114776
0.00115249
0.00115721
0.00116194
0.00116665
0.00117137
0.00117608
0.00118078
0.00118548
0.00119018
0.00119487
0.00119955
0.00120423
0.00120891
0.00121358
0.00121824
0.0012229
0.00122756
0.0012322
0.00123684
0.00124148
0.00124611
0.00125073
0.00125535
0.00125996
0.00126456
0.00126916
0.00127375
0.00127833
0.00128291
0.00128748
0.00129204
0.00129659
0.00130114
0.00130568
0.00131021
0.00131473
0.00131925
0.00132375
0.00132825
0.00133274
0.00133722
0.0013417
0.00134616
0.00135062
0.00135506
0.0013595
0.00136393
0.00136835
0.00137276
0.00137716
0.00138155
0.00138593
0.0013903
0.00139467
0.00139902
0.00140336
0.00140769
0.00141201
0.00141632
0.00142062
0.0014249
0.00142918
0.00143345
0.0014377
0.00144195
0.00144618
0.0014504
0.00145461
0.00145881
0.00146299
0.00146717
0.00147133
0.00147548
0.00147962
0.00148374
0.00148785
0.00149195
0.00149604
0.00150011
0.00150418
0.00150822
0.00151226
0.00151628
0.00152029
0.00152428
0.00152826
0.00153223
0.00153618
0.00154012
0.00154405
0.00154796
0.00155185
0.00155574
0.0015596
0.00156346
0.0015673
0.00157112
0.00157493
0.00157872
0.0015825
0.00158626
0.00159001
0.00159374
0.00159745
0.00160115
0.00160484
0.00160851
0.00161216
0.00161579
0.00161941
0.00162302
0.0016266
0.00163017
0.00163372
0.00163726
0.00164078
0.00164428
0.00164777
0.00165123
0.00165468
0.00165812
0.00166153
0.00166493
0.00166831
0.00167167
0.00167501
0.00167834
0.00168164
0.00168493
0.0016882
0.00169146
0.00169469
0.0016979
0.0017011
0.00170427
0.00170743
0.00171057
0.00171369
0.00171679
0.00171987
0.00172293
0.00172597
0.00172899
0.00173199
0.00173497
0.00173793
0.00174087
0.00174379
0.00174669
0.00174957
0.00175243
0.00175527
0.00175809
0.00176088
0.00176366
0.00176641
0.00176915
0.00177186
0.00177455
0.00177722
0.00177987
0.00178249
0.0017851
0.00178768
0.00179024
0.00179278
0.00179529
0.00179779
0.00180026
0.00180271
0.00180514
0.00180754
0.00180993
0.00181228
0.00181462
0.00181694
0.00181923
0.00182149
0.00182374
0.00182596
0.00182816
0.00183033
0.00183248
0.00183461
0.00183671
0.00183879
0.00184085
0.00184288
0.00184489
0.00184687
0.00184883
0.00185077
0.00185268
0.00185457
0.00185643
0.00185827
0.00186008
0.00186187
0.00186364
0.00186537
0.00186709
0.00186878
0.00187044
0.00187208
0.00187369
0.00187528
0.00187684
0.00187838
0.00187989
0.00188138
0.00188284
0.00188427
0.00188568
0.00188707
0.00188842
0.00188975
0.00189106
0.00189234
0.00189359
0.00189481
0.00189601
0.00189719
0.00189833
0.00189945
0.00190055
0.00190161
0.00190265
0.00190367
0.00190465
0.00190561
0.00190655
0.00190745
0.00190833
0.00190918
0.00191
0.0019108
0.00191157
0.00191231
0.00191302
0.00191371
0.00191437
0.001915
0.0019156
0.00191618
0.00191673
0.00191725
0.00191774
0.0019182
0.00191864
0.00191905
0.00191943
0.00191978
0.0019201
0.0019204
0.00192066
0.0019209
0.00192111
0.00192129
0.00192145
0.00192157
0.00192167
0.00192174
0.00192177
0.00192178
0.00192177
0.00192172
0.00192164
0.00192154
0.0019214
0.00192124
0.00192105
0.00192083
0.00192058
0.0019203
0.00191999
0.00191965
0.00191928
0.00191889
0.00191846
0.00191801
0.00191753
0.00191701
0.00191647
0.0019159
0.0019153
0.00191466
0.001914
0.00191331
0.00191259
0.00191185
0.00191107
0.00191026
0.00190942
0.00190855
0.00190766
0.00190673
0.00190577
0.00190478
0.00190377
0.00190272
0.00190165
0.00190054
0.0018994
0.00189824
0.00189704
0.00189582
0.00189456
0.00189328
0.00189196
0.00189062
0.00188924
0.00188784
0.0018864
0.00188494
0.00188344
0.00188192
0.00188036
0.00187878
0.00187716
0.00187552
0.00187384
0.00187214
0.0018704
0.00186864
0.00186684
0.00186502
0.00186316
0.00186127
0.00185936
0.00185741
0.00185544
0.00185343
0.0018514
0.00184933
0.00184723
0.00184511
0.00184295
0.00184077
0.00183855
0.00183631
0.00183403
0.00183172
0.00182939
0.00182702
0.00182463
0.0018222
0.00181974
0.00181726
0.00181474
0.0018122
0.00180962
0.00180702
0.00180438
0.00180172
0.00179902
0.0017963
0.00179355
0.00179076
0.00178795
0.00178511
0.00178223
0.00177933
0.0017764
0.00177344
0.00177045
0.00176742
0.00176437
0.00176129
0.00175819
0.00175505
0.00175188
0.00174868
0.00174545
0.0017422
0.00173891
0.0017356
0.00173225
0.00172888
0.00172548
0.00172205
0.00171859
0.0017151
0.00171158
0.00170803
0.00170446
0.00170085
0.00169722
0.00169355
0.00168986
0.00168614
0.00168239
0.00167862
0.00167481
0.00167098
0.00166711
0.00166322
0.0016593
0.00165535
0.00165138
0.00164737
0.00164334
0.00163928
0.00163519
0.00163107
0.00162692
0.00162275
0.00161855
0.00161432
0.00161006
0.00160578
0.00160147
0.00159713
0.00159276
0.00158837
0.00158394
0.00157949
0.00157502
0.00157051
0.00156598
0.00156142
0.00155684
0.00155222
0.00154759
0.00154292
0.00153823
0.00153351
0.00152876
0.00152399
0.00151919
0.00151436
0.00150951
0.00150463
0.00149972
0.00149479
0.00148983
0.00148485
0.00147984
0.00147481
0.00146975
0.00146466
0.00145955
0.00145441
0.00144924
0.00144406
0.00143884
0.0014336
0.00142834
0.00142305
0.00141773
0.00141239
0.00140703
0.00140164
0.00139622
0.00139078
0.00138532
0.00137983
0.00137432
0.00136878
0.00136322
0.00135764
0.00135203
0.0013464
0.00134074
0.00133506
0.00132935
0.00132363
0.00131787
0.0013121
0.0013063
0.00130048
0.00129464
0.00128877
0.00128288
0.00127697
0.00127103
0.00126507
0.00125909
0.00125309
0.00124706
0.00124101
0.00123494
0.00122885
0.00122274
0.0012166
0.00121044
0.00120427
0.00119806
0.00119184
0.0011856
0.00117933
0.00117305
0.00116674
0.00116041
0.00115406
0.00114769
0.0011413
0.00113489
0.00112846
0.00112201
