# Pulseq sequence file
# Created by MATLAB mr toolbox

# Format of blocks:
#  #  D RF  GX  GY  GZ ADC
[BLOCKS]
   1  0  1   0   0   1  0
   2  0  0   2   0   0  0
   3  1  0   0   0   0  0
   4  0  2   0   0   1  0
   5  0  0   0   3   0  0
   6  2  0   0   0   0  0
   7  0  0   2   0   0  1
   8  0  0   0   3   0  0
   9  2  0   0   0   0  0
  10  0  2   0   0   1  0
  11  0  0   0   3   0  0
  12  2  0   0   0   0  0
  13  0  0   2   0   0  1
  14  0  0   0   3   0  0
  15  2  0   0   0   0  0
  16  0  2   0   0   1  0
  17  0  0   0   3   0  0
  18  2  0   0   0   0  0
  19  0  0   2   0   0  1
  20  0  0   0   3   0  0
  21  2  0   0   0   0  0
  22  0  2   0   0   1  0
  23  0  0   0   3   0  0
  24  2  0   0   0   0  0
  25  0  0   2   0   0  1
  26  0  0   0   3   0  0
  27  2  0   0   0   0  0
  28  0  2   0   0   1  0
  29  0  0   0   3   0  0
  30  2  0   0   0   0  0
  31  0  0   2   0   0  1
  32  0  0   0   3   0  0
  33  2  0   0   0   0  0
  34  3  0   0   0   0  0
  35  0  1   0   0   1  0
  36  0  0   2   0   0  0
  37  1  0   0   0   0  0
  38  0  2   0   0   1  0
  39  0  0   0   4   0  0
  40  2  0   0   0   0  0
  41  0  0   2   0   0  1
  42  0  0   0   4   0  0
  43  2  0   0   0   0  0
  44  0  2   0   0   1  0
  45  0  0   0   4   0  0
  46  2  0   0   0   0  0
  47  0  0   2   0   0  1
  48  0  0   0   4   0  0
  49  2  0   0   0   0  0
  50  0  2   0   0   1  0
  51  0  0   0   4   0  0
  52  2  0   0   0   0  0
  53  0  0   2   0   0  1
  54  0  0   0   4   0  0
  55  2  0   0   0   0  0
  56  0  2   0   0   1  0
  57  0  0   0   4   0  0
  58  2  0   0   0   0  0
  59  0  0   2   0   0  1
  60  0  0   0   4   0  0
  61  2  0   0   0   0  0
  62  0  2   0   0   1  0
  63  0  0   0   4   0  0
  64  2  0   0   0   0  0
  65  0  0   2   0   0  1
  66  0  0   0   4   0  0
  67  2  0   0   0   0  0
  68  3  0   0   0   0  0
  69  0  1   0   0   1  0
  70  0  0   2   0   0  0
  71  1  0   0   0   0  0
  72  0  2   0   0   1  0
  73  0  0   0   5   0  0
  74  2  0   0   0   0  0
  75  0  0   2   0   0  1
  76  0  0   0   5   0  0
  77  2  0   0   0   0  0
  78  0  2   0   0   1  0
  79  0  0   0   5   0  0
  80  2  0   0   0   0  0
  81  0  0   2   0   0  1
  82  0  0   0   5   0  0
  83  2  0   0   0   0  0
  84  0  2   0   0   1  0
  85  0  0   0   5   0  0
  86  2  0   0   0   0  0
  87  0  0   2   0   0  1
  88  0  0   0   5   0  0
  89  2  0   0   0   0  0
  90  0  2   0   0   1  0
  91  0  0   0   5   0  0
  92  2  0   0   0   0  0
  93  0  0   2   0   0  1
  94  0  0   0   5   0  0
  95  2  0   0   0   0  0
  96  0  2   0   0   1  0
  97  0  0   0   5   0  0
  98  2  0   0   0   0  0
  99  0  0   2   0   0  1
 100  0  0   0   5   0  0
 101  2  0   0   0   0  0
 102  3  0   0   0   0  0
 103  0  1   0   0   1  0
 104  0  0   2   0   0  0
 105  1  0   0   0   0  0
 106  0  2   0   0   1  0
 107  0  0   0   6   0  0
 108  2  0   0   0   0  0
 109  0  0   2   0   0  1
 110  0  0   0   6   0  0
 111  2  0   0   0   0  0
 112  0  2   0   0   1  0
 113  0  0   0   6   0  0
 114  2  0   0   0   0  0
 115  0  0   2   0   0  1
 116  0  0   0   6   0  0
 117  2  0   0   0   0  0
 118  0  2   0   0   1  0
 119  0  0   0   6   0  0
 120  2  0   0   0   0  0
 121  0  0   2   0   0  1
 122  0  0   0   6   0  0
 123  2  0   0   0   0  0
 124  0  2   0   0   1  0
 125  0  0   0   6   0  0
 126  2  0   0   0   0  0
 127  0  0   2   0   0  1
 128  0  0   0   6   0  0
 129  2  0   0   0   0  0
 130  0  2   0   0   1  0
 131  0  0   0   6   0  0
 132  2  0   0   0   0  0
 133  0  0   2   0   0  1
 134  0  0   0   6   0  0
 135  2  0   0   0   0  0
 136  3  0   0   0   0  0
 137  0  1   0   0   1  0
 138  0  0   2   0   0  0
 139  1  0   0   0   0  0
 140  0  2   0   0   1  0
 141  0  0   0   7   0  0
 142  2  0   0   0   0  0
 143  0  0   2   0   0  1
 144  0  0   0   7   0  0
 145  2  0   0   0   0  0
 146  0  2   0   0   1  0
 147  0  0   0   7   0  0
 148  2  0   0   0   0  0
 149  0  0   2   0   0  1
 150  0  0   0   7   0  0
 151  2  0   0   0   0  0
 152  0  2   0   0   1  0
 153  0  0   0   7   0  0
 154  2  0   0   0   0  0
 155  0  0   2   0   0  1
 156  0  0   0   7   0  0
 157  2  0   0   0   0  0
 158  0  2   0   0   1  0
 159  0  0   0   7   0  0
 160  2  0   0   0   0  0
 161  0  0   2   0   0  1
 162  0  0   0   7   0  0
 163  2  0   0   0   0  0
 164  0  2   0   0   1  0
 165  0  0   0   7   0  0
 166  2  0   0   0   0  0
 167  0  0   2   0   0  1
 168  0  0   0   7   0  0
 169  2  0   0   0   0  0
 170  3  0   0   0   0  0
 171  0  1   0   0   1  0
 172  0  0   2   0   0  0
 173  1  0   0   0   0  0
 174  0  2   0   0   1  0
 175  0  0   0   8   0  0
 176  2  0   0   0   0  0
 177  0  0   2   0   0  1
 178  0  0   0   8   0  0
 179  2  0   0   0   0  0
 180  0  2   0   0   1  0
 181  0  0   0   8   0  0
 182  2  0   0   0   0  0
 183  0  0   2   0   0  1
 184  0  0   0   8   0  0
 185  2  0   0   0   0  0
 186  0  2   0   0   1  0
 187  0  0   0   8   0  0
 188  2  0   0   0   0  0
 189  0  0   2   0   0  1
 190  0  0   0   8   0  0
 191  2  0   0   0   0  0
 192  0  2   0   0   1  0
 193  0  0   0   8   0  0
 194  2  0   0   0   0  0
 195  0  0   2   0   0  1
 196  0  0   0   8   0  0
 197  2  0   0   0   0  0
 198  0  2   0   0   1  0
 199  0  0   0   8   0  0
 200  2  0   0   0   0  0
 201  0  0   2   0   0  1
 202  0  0   0   8   0  0
 203  2  0   0   0   0  0
 204  3  0   0   0   0  0
 205  0  1   0   0   1  0
 206  0  0   2   0   0  0
 207  1  0   0   0   0  0
 208  0  2   0   0   1  0
 209  0  0   0   9   0  0
 210  2  0   0   0   0  0
 211  0  0   2   0   0  1
 212  0  0   0   9   0  0
 213  2  0   0   0   0  0
 214  0  2   0   0   1  0
 215  0  0   0   9   0  0
 216  2  0   0   0   0  0
 217  0  0   2   0   0  1
 218  0  0   0   9   0  0
 219  2  0   0   0   0  0
 220  0  2   0   0   1  0
 221  0  0   0   9   0  0
 222  2  0   0   0   0  0
 223  0  0   2   0   0  1
 224  0  0   0   9   0  0
 225  2  0   0   0   0  0
 226  0  2   0   0   1  0
 227  0  0   0   9   0  0
 228  2  0   0   0   0  0
 229  0  0   2   0   0  1
 230  0  0   0   9   0  0
 231  2  0   0   0   0  0
 232  0  2   0   0   1  0
 233  0  0   0   9   0  0
 234  2  0   0   0   0  0
 235  0  0   2   0   0  1
 236  0  0   0   9   0  0
 237  2  0   0   0   0  0
 238  3  0   0   0   0  0
 239  0  1   0   0   1  0
 240  0  0   2   0   0  0
 241  1  0   0   0   0  0
 242  0  2   0   0   1  0
 243  0  0   0  10   0  0
 244  2  0   0   0   0  0
 245  0  0   2   0   0  1
 246  0  0   0  10   0  0
 247  2  0   0   0   0  0
 248  0  2   0   0   1  0
 249  0  0   0  10   0  0
 250  2  0   0   0   0  0
 251  0  0   2   0   0  1
 252  0  0   0  10   0  0
 253  2  0   0   0   0  0
 254  0  2   0   0   1  0
 255  0  0   0  10   0  0
 256  2  0   0   0   0  0
 257  0  0   2   0   0  1
 258  0  0   0  10   0  0
 259  2  0   0   0   0  0
 260  0  2   0   0   1  0
 261  0  0   0  10   0  0
 262  2  0   0   0   0  0
 263  0  0   2   0   0  1
 264  0  0   0  10   0  0
 265  2  0   0   0   0  0
 266  0  2   0   0   1  0
 267  0  0   0  10   0  0
 268  2  0   0   0   0  0
 269  0  0   2   0   0  1
 270  0  0   0  10   0  0
 271  2  0   0   0   0  0
 272  3  0   0   0   0  0
 273  0  1   0   0   1  0
 274  0  0   2   0   0  0
 275  1  0   0   0   0  0
 276  0  2   0   0   1  0
 277  0  0   0  11   0  0
 278  2  0   0   0   0  0
 279  0  0   2   0   0  1
 280  0  0   0  11   0  0
 281  2  0   0   0   0  0
 282  0  2   0   0   1  0
 283  0  0   0  11   0  0
 284  2  0   0   0   0  0
 285  0  0   2   0   0  1
 286  0  0   0  11   0  0
 287  2  0   0   0   0  0
 288  0  2   0   0   1  0
 289  0  0   0  11   0  0
 290  2  0   0   0   0  0
 291  0  0   2   0   0  1
 292  0  0   0  11   0  0
 293  2  0   0   0   0  0
 294  0  2   0   0   1  0
 295  0  0   0  11   0  0
 296  2  0   0   0   0  0
 297  0  0   2   0   0  1
 298  0  0   0  11   0  0
 299  2  0   0   0   0  0
 300  0  2   0   0   1  0
 301  0  0   0  11   0  0
 302  2  0   0   0   0  0
 303  0  0   2   0   0  1
 304  0  0   0  11   0  0
 305  2  0   0   0   0  0
 306  3  0   0   0   0  0
 307  0  1   0   0   1  0
 308  0  0   2   0   0  0
 309  1  0   0   0   0  0
 310  0  2   0   0   1  0
 311  0  0   0  12   0  0
 312  2  0   0   0   0  0
 313  0  0   2   0   0  1
 314  0  0   0  12   0  0
 315  2  0   0   0   0  0
 316  0  2   0   0   1  0
 317  0  0   0  12   0  0
 318  2  0   0   0   0  0
 319  0  0   2   0   0  1
 320  0  0   0  12   0  0
 321  2  0   0   0   0  0
 322  0  2   0   0   1  0
 323  0  0   0  12   0  0
 324  2  0   0   0   0  0
 325  0  0   2   0   0  1
 326  0  0   0  12   0  0
 327  2  0   0   0   0  0
 328  0  2   0   0   1  0
 329  0  0   0  12   0  0
 330  2  0   0   0   0  0
 331  0  0   2   0   0  1
 332  0  0   0  12   0  0
 333  2  0   0   0   0  0
 334  0  2   0   0   1  0
 335  0  0   0  12   0  0
 336  2  0   0   0   0  0
 337  0  0   2   0   0  1
 338  0  0   0  12   0  0
 339  2  0   0   0   0  0
 340  3  0   0   0   0  0
 341  0  1   0   0   1  0
 342  0  0   2   0   0  0
 343  1  0   0   0   0  0
 344  0  2   0   0   1  0
 345  0  0   0  13   0  0
 346  2  0   0   0   0  0
 347  0  0   2   0   0  1
 348  0  0   0  13   0  0
 349  2  0   0   0   0  0
 350  0  2   0   0   1  0
 351  0  0   0  13   0  0
 352  2  0   0   0   0  0
 353  0  0   2   0   0  1
 354  0  0   0  13   0  0
 355  2  0   0   0   0  0
 356  0  2   0   0   1  0
 357  0  0   0  13   0  0
 358  2  0   0   0   0  0
 359  0  0   2   0   0  1
 360  0  0   0  13   0  0
 361  2  0   0   0   0  0
 362  0  2   0   0   1  0
 363  0  0   0  13   0  0
 364  2  0   0   0   0  0
 365  0  0   2   0   0  1
 366  0  0   0  13   0  0
 367  2  0   0   0   0  0
 368  0  2   0   0   1  0
 369  0  0   0  13   0  0
 370  2  0   0   0   0  0
 371  0  0   2   0   0  1
 372  0  0   0  13   0  0
 373  2  0   0   0   0  0
 374  3  0   0   0   0  0
 375  0  1   0   0   1  0
 376  0  0   2   0   0  0
 377  1  0   0   0   0  0
 378  0  2   0   0   1  0
 379  0  0   0  14   0  0
 380  2  0   0   0   0  0
[RF]
1      246.864 1 2 0 0
2      493.728 1 2 0 0

# Format of trapezoid gradients:
# id amplitude rise flat fall
# ..      Hz/m   us   us   us
[TRAP]
 1       200000  30 4000  30
 2      45454.5  10 6400  10
 3      70808.6  10 1980  10
 4      68524.4  10 1980  10
 5      66240.3  10 1980  10
 6      63956.1  10 1980  10
 7        61672  10 1980  10
 8      59387.8  10 1980  10
 9      57103.7  10 1980  10
10      54819.6  10 1980  10
11      52535.4  10 1980  10
12      50251.3  10 1980  10
13      47967.1  10 1980  10
14        45683  10 1980  10
15      43398.8  10 1980  10
16      41114.7  10 1980  10
17      38830.5  10 1980  10
18      36546.4  10 1980  10
19      34262.2  10 1980  10
20      31978.1  10 1980  10
21      29693.9  10 1980  10
22      27409.8  10 1980  10
23      25125.6  10 1980  10
24      22841.5  10 1980  10
25      20557.3  10 1980  10
26      18273.2  10 1980  10
27        15989  10 1980  10
28      13704.9  10 1980  10
29      11420.7  10 1980  10
30      9136.59  10 1980  10
31      6852.44  10 1980  10
32       4568.3  10 1980  10
33      2284.15  10 1980  10
34            0   0 2000   0
35     -2284.15  10 1980  10
36      -4568.3  10 1980  10
37     -6852.44  10 1980  10
38     -9136.59  10 1980  10
39     -11420.7  10 1980  10
40     -13704.9  10 1980  10
41       -15989  10 1980  10
42     -18273.2  10 1980  10
43     -20557.3  10 1980  10
44     -22841.5  10 1980  10
45     -25125.6  10 1980  10
46     -27409.8  10 1980  10
47     -29693.9  10 1980  10
48     -31978.1  10 1980  10
49     -34262.2  10 1980  10
50     -36546.4  10 1980  10
51     -38830.5  10 1980  10
52     -41114.7  10 1980  10
53     -43398.8  10 1980  10
54       -45683  10 1980  10
55     -47967.1  10 1980  10
56     -50251.3  10 1980  10
57     -52535.4  10 1980  10
58     -54819.6  10 1980  10
59     -57103.7  10 1980  10
60     -59387.8  10 1980  10
61       -61672  10 1980  10
62     -63956.1  10 1980  10
63     -66240.3  10 1980  10
64     -68524.4  10 1980  10
65     -70808.6  10 1980  10
66     -73461.9  20 1960  20

# Format of ADC events:
# id num dwell delay freq phase
# ..  ..    ns    us   Hz   rad
[ADC]
 1  64 100000  10 0 0

# Format of delays:
# id delay (us)
[DELAYS]
1 39550
2 42775
3 457465

# Sequence Shapes
[SHAPES]

shape_id 1
num_samples 4030
0
0
34
3.93359e-08
5.23773e-08
6.72953e-08
8.40932e-08
1.02774e-07
1.23341e-07
1.45797e-07
1.70145e-07
1.96389e-07
2.2453e-07
2.54572e-07
2.86517e-07
3.20368e-07
3.56129e-07
3.938e-07
4.33385e-07
4.74886e-07
5.18306e-07
5.63646e-07
6.1091e-07
6.60098e-07
7.11214e-07
7.6426e-07
8.19236e-07
8.76146e-07
9.34991e-07
9.95773e-07
1.05849e-06
1.12315e-06
1.18976e-06
1.2583e-06
1.32879e-06
1.40123e-06
1.47561e-06
1.55195e-06
1.63023e-06
1.71046e-06
1.79265e-06
1.87679e-06
1.96289e-06
2.05093e-06
2.14094e-06
2.2329e-06
2.32682e-06
2.4227e-06
2.52053e-06
2.62033e-06
2.72208e-06
2.82579e-06
2.93147e-06
3.0391e-06
3.14869e-06
3.26025e-06
3.37376e-06
3.48923e-06
3.60667e-06
3.72606e-06
3.84742e-06
3.97073e-06
4.09601e-06
4.22324e-06
4.35243e-06
4.48357e-06
4.61668e-06
4.75174e-06
4.88875e-06
5.02772e-06
5.16864e-06
5.31152e-06
5.45634e-06
5.60312e-06
5.75184e-06
5.90251e-06
6.05513e-06
6.2097e-06
6.3662e-06
6.52465e-06
6.68504e-06
6.84737e-06
7.01163e-06
7.17783e-06
7.34596e-06
7.51602e-06
7.68801e-06
7.86193e-06
8.03777e-06
8.21554e-06
8.39522e-06
8.57682e-06
8.76034e-06
8.94577e-06
9.13311e-06
9.32235e-06
9.5135e-06
9.70656e-06
9.90151e-06
1.00984e-05
1.02971e-05
1.04977e-05
1.07002e-05
1.09046e-05
1.11109e-05
1.13191e-05
1.15291e-05
1.1741e-05
1.19548e-05
1.21704e-05
1.23879e-05
1.26072e-05
1.28284e-05
1.30514e-05
1.32763e-05
1.3503e-05
1.37316e-05
1.3962e-05
1.41942e-05
1.44282e-05
1.46641e-05
1.49017e-05
1.51412e-05
1.53825e-05
1.56255e-05
1.58704e-05
1.6117e-05
1.63655e-05
1.66157e-05
1.68677e-05
1.71214e-05
1.7377e-05
1.76343e-05
1.78933e-05
1.81541e-05
1.84166e-05
1.86809e-05
1.89468e-05
1.92146e-05
1.9484e-05
1.97551e-05
2.0028e-05
2.03026e-05
2.05788e-05
2.08567e-05
2.11364e-05
2.14177e-05
2.17006e-05
2.19853e-05
2.22716e-05
2.25595e-05
2.28491e-05
2.31403e-05
2.34332e-05
2.37277e-05
2.40238e-05
2.43215e-05
2.46208e-05
2.49217e-05
2.52242e-05
2.55282e-05
2.58339e-05
2.61411e-05
2.64499e-05
2.67602e-05
2.70721e-05
2.73855e-05
2.77004e-05
2.80169e-05
2.83348e-05
2.86543e-05
2.89753e-05
2.92977e-05
2.96217e-05
2.99471e-05
3.0274e-05
3.06023e-05
3.09321e-05
3.12633e-05
3.15959e-05
3.193e-05
3.22655e-05
3.26023e-05
3.29406e-05
3.32803e-05
3.36213e-05
3.39637e-05
3.43075e-05
3.46526e-05
3.49991e-05
3.53469e-05
3.5696e-05
3.60464e-05
3.63981e-05
3.67512e-05
3.71055e-05
3.7461e-05
3.78179e-05
3.8176e-05
3.85353e-05
3.88959e-05
3.92577e-05
3.96207e-05
3.99849e-05
4.03503e-05
4.07169e-05
4.10847e-05
4.14536e-05
4.18237e-05
4.21949e-05
4.25672e-05
4.29407e-05
4.33153e-05
4.3691e-05
4.40677e-05
4.44456e-05
4.48245e-05
4.52044e-05
4.55854e-05
4.59675e-05
4.63505e-05
4.67346e-05
4.71197e-05
4.75057e-05
4.78927e-05
4.82807e-05
4.86697e-05
4.90596e-05
4.94504e-05
4.98421e-05
5.02347e-05
5.06282e-05
5.10226e-05
5.14179e-05
5.1814e-05
5.2211e-05
5.26088e-05
5.30074e-05
5.34069e-05
5.38071e-05
5.42081e-05
5.46099e-05
5.50124e-05
5.54157e-05
5.58197e-05
5.62244e-05
5.66298e-05
5.70359e-05
5.74427e-05
5.78502e-05
5.82583e-05
5.86671e-05
5.90765e-05
5.94865e-05
5.98971e-05
6.03083e-05
6.072e-05
6.11324e-05
6.15452e-05
6.19586e-05
6.23726e-05
6.2787e-05
6.32019e-05
6.36173e-05
6.40332e-05
6.44495e-05
6.48662e-05
6.52834e-05
6.5701e-05
6.61189e-05
6.65373e-05
6.6956e-05
6.73751e-05
6.77945e-05
6.82142e-05
6.86342e-05
6.90545e-05
6.94751e-05
6.9896e-05
7.03171e-05
7.07385e-05
7.11601e-05
7.15818e-05
7.20038e-05
7.24259e-05
7.28482e-05
7.32707e-05
7.36932e-05
7.41159e-05
7.45387e-05
7.49616e-05
7.53845e-05
7.58075e-05
7.62306e-05
7.66536e-05
7.70767e-05
7.74997e-05
7.79228e-05
7.83457e-05
7.87687e-05
7.91915e-05
7.96143e-05
8.0037e-05
8.04595e-05
8.0882e-05
8.13042e-05
8.17263e-05
8.21483e-05
8.257e-05
8.29915e-05
8.34128e-05
8.38338e-05
8.42546e-05
8.46751e-05
8.50953e-05
8.55151e-05
8.59347e-05
8.63539e-05
8.67728e-05
8.71912e-05
8.76093e-05
8.8027e-05
8.84442e-05
8.8861e-05
8.92773e-05
8.96932e-05
9.01085e-05
9.05234e-05
9.09377e-05
9.13515e-05
9.17647e-05
9.21773e-05
9.25893e-05
9.30007e-05
9.34115e-05
9.38217e-05
9.42311e-05
9.46399e-05
9.5048e-05
9.54554e-05
9.5862e-05
9.62679e-05
9.6673e-05
9.70774e-05
9.74809e-05
9.78836e-05
9.82855e-05
9.86865e-05
9.90866e-05
9.94859e-05
9.98842e-05
0.000100282
0.000100678
0.000101074
0.000101468
0.000101862
0.000102254
0.000102646
0.000103036
0.000103425
0.000103814
0.000104201
0.000104587
0.000104972
0.000105356
0.000105738
0.000106119
0.0001065
0.000106878
0.000107256
0.000107633
0.000108008
0.000108381
0.000108754
0.000109125
0.000109495
0.000109863
0.00011023
0.000110596
0.00011096
0.000111323
0.000111684
0.000112044
0.000112402
0.000112759
0.000113114
0.000113468
0.00011382
0.00011417
0.000114519
0.000114866
0.000115211
0.000115555
0.000115897
0.000116238
0.000116577
0.000116914
0.000117249
0.000117582
0.000117914
0.000118244
0.000118572
0.000118898
0.000119222
0.000119544
0.000119864
0.000120183
0.000120499
0.000120814
0.000121126
0.000121437
0.000121745
0.000122052
0.000122356
0.000122658
0.000122959
0.000123257
0.000123553
0.000123846
0.000124138
0.000124427
0.000124714
0.000124999
0.000125282
0.000125562
0.00012584
0.000126116
0.000126389
0.00012666
0.000126929
0.000127195
0.000127459
0.000127721
0.00012798
0.000128236
0.00012849
0.000128742
0.000128991
0.000129237
0.000129481
0.000129723
0.000129961
0.000130197
0.000130431
0.000130662
0.00013089
0.000131115
0.000131338
0.000131558
0.000131775
0.00013199
0.000132202
0.000132411
0.000132617
0.00013282
0.00013302
0.000133218
0.000133412
0.000133604
0.000133793
0.000133978
0.000134161
0.000134341
0.000134518
0.000134691
0.000134862
0.00013503
0.000135194
0.000135356
0.000135514
0.000135669
0.000135821
0.00013597
0.000136115
0.000136258
0.000136397
0.000136533
0.000136665
0.000136794
0.00013692
0.000137043
0.000137162
0.000137278
0.000137391
0.0001375
0.000137606
0.000137708
0.000137807
0.000137902
0.000137994
0.000138082
0.000138167
0.000138248
0.000138326
0.0001384
0.00013847
0.000138537
0.0001386
0.00013866
0.000138715
0.000138767
0.000138816
0.000138861
0.000138901
0.000138939
0.000138972
0.000139002
0.000139027
0.000139049
0.000139067
0.000139081
0.000139091
0.000139091
4
0.00013907
0.000139053
0.000139031
0.000139005
0.000138976
0.000138942
0.000138904
0.000138862
0.000138816
0.000138766
0.000138711
0.000138652
0.00013859
0.000138522
0.000138451
0.000138375
0.000138296
0.000138211
0.000138123
0.00013803
0.000137933
0.000137831
0.000137725
0.000137615
0.0001375
0.000137381
0.000137258
0.00013713
0.000136997
0.00013686
0.000136718
0.000136572
0.000136422
0.000136267
0.000136107
0.000135942
0.000135773
0.0001356
0.000135422
0.000135239
0.000135051
0.000134859
0.000134662
0.00013446
0.000134254
0.000134043
0.000133827
0.000133606
0.000133381
0.000133151
0.000132915
0.000132675
0.000132431
0.000132181
0.000131926
0.000131667
0.000131402
0.000131133
0.000130859
0.00013058
0.000130295
0.000130006
0.000129712
0.000129413
0.000129108
0.000128799
0.000128485
0.000128165
0.000127841
0.000127511
0.000127176
0.000126836
0.000126491
0.000126141
0.000125785
0.000125425
0.000125059
0.000124688
0.000124311
0.00012393
0.000123543
0.000123151
0.000122754
0.000122351
0.000121943
0.00012153
0.000121111
0.000120687
0.000120258
0.000119823
0.000119383
0.000118937
0.000118486
0.00011803
0.000117568
0.000117101
0.000116628
0.00011615
0.000115666
0.000115177
0.000114682
0.000114182
0.000113676
0.000113165
0.000112648
0.000112125
0.000111597
0.000111064
0.000110524
0.000109979
0.000109429
0.000108873
0.000108311
0.000107743
0.00010717
0.000106591
0.000106007
0.000105416
0.00010482
0.000104219
0.000103611
0.000102998
0.000102379
0.000101754
0.000101123
0.000100487
9.98448e-05
9.91968e-05
9.8543e-05
9.78834e-05
9.72179e-05
9.65465e-05
9.58693e-05
9.51862e-05
9.44972e-05
9.38024e-05
9.31016e-05
9.23949e-05
9.16823e-05
9.09638e-05
9.02393e-05
8.95089e-05
8.87725e-05
8.80302e-05
8.72819e-05
8.65276e-05
8.57674e-05
8.50011e-05
8.42288e-05
8.34505e-05
8.26662e-05
8.18759e-05
8.10795e-05
8.02771e-05
7.94686e-05
7.8654e-05
7.78334e-05
7.70068e-05
7.6174e-05
7.53351e-05
7.44902e-05
7.36391e-05
7.2782e-05
7.19187e-05
7.10493e-05
7.01737e-05
6.9292e-05
6.84042e-05
6.75102e-05
6.66101e-05
6.57038e-05
6.47913e-05
6.38727e-05
6.29479e-05
6.20169e-05
6.10797e-05
6.01363e-05
5.91866e-05
5.82308e-05
5.72688e-05
5.63006e-05
5.53261e-05
5.43454e-05
5.33584e-05
5.23653e-05
5.13658e-05
5.03602e-05
4.93482e-05
4.83301e-05
4.73056e-05
4.62749e-05
4.52379e-05
4.41947e-05
4.31451e-05
4.20893e-05
4.10272e-05
3.99588e-05
3.88841e-05
3.78031e-05
3.67159e-05
3.56223e-05
3.45224e-05
3.34162e-05
3.23037e-05
3.11849e-05
3.00597e-05
2.89282e-05
2.77905e-05
2.66464e-05
2.54959e-05
2.43391e-05
2.3176e-05
2.20066e-05
2.08309e-05
1.96488e-05
1.84603e-05
1.72655e-05
1.60644e-05
1.48569e-05
1.36431e-05
1.2423e-05
1.11965e-05
9.96364e-06
8.72445e-06
7.47891e-06
6.22702e-06
4.96879e-06
3.7042e-06
2.43326e-06
1.15598e-06
-1.27658e-07
-1.41764e-06
-2.71398e-06
-4.01666e-06
-5.32569e-06
-6.64107e-06
-7.9628e-06
-9.29087e-06
-1.06253e-05
-1.19661e-05
-1.33132e-05
-1.46666e-05
-1.60264e-05
-1.73925e-05
-1.8765e-05
-2.01438e-05
-2.1529e-05
-2.29204e-05
-2.43182e-05
-2.57224e-05
-2.71328e-05
-2.85496e-05
-2.99727e-05
-3.14021e-05
-3.28379e-05
-3.42799e-05
-3.57283e-05
-3.7183e-05
-3.8644e-05
-4.01112e-05
-4.15848e-05
-4.30647e-05
-4.45509e-05
-4.60433e-05
-4.7542e-05
-4.90471e-05
-5.05583e-05
-5.20759e-05
-5.35997e-05
-5.51298e-05
-5.66662e-05
-5.82088e-05
-5.97576e-05
-6.13127e-05
-6.28741e-05
-6.44417e-05
-6.60155e-05
-6.75955e-05
-6.91817e-05
-7.07742e-05
-7.23729e-05
-7.39777e-05
-7.55888e-05
-7.7206e-05
-7.88295e-05
-8.04591e-05
-8.20949e-05
-8.37368e-05
-8.53849e-05
-8.70392e-05
-8.86996e-05
-9.03661e-05
-9.20388e-05
-9.37176e-05
-9.54025e-05
-9.70935e-05
-9.87906e-05
-0.000100494
-0.000102203
-0.000103919
-0.00010564
-0.000107368
-0.000109101
-0.000110841
-0.000112586
-0.000114338
-0.000116096
-0.000117859
-0.000119629
-0.000121405
-0.000123187
-0.000124974
-0.000126768
-0.000128567
-0.000130373
-0.000132184
-0.000134002
-0.000135825
-0.000137654
-0.000139489
-0.00014133
-0.000143177
-0.00014503
-0.000146889
-0.000148753
-0.000150623
-0.0001525
-0.000154381
-0.000156269
-0.000158163
-0.000160062
-0.000161967
-0.000163878
-0.000165794
-0.000167717
-0.000169645
-0.000171578
-0.000173518
-0.000175463
-0.000177414
-0.00017937
-0.000181332
-0.0001833
-0.000185273
-0.000187252
-0.000189236
-0.000191226
-0.000193222
-0.000195223
-0.00019723
-0.000199242
-0.00020126
-0.000203283
-0.000205312
-0.000207346
-0.000209386
-0.000211431
-0.000213481
-0.000215537
-0.000217598
-0.000219665
-0.000221737
-0.000223815
-0.000225897
-0.000227985
-0.000230079
-0.000232177
-0.000234281
-0.00023639
-0.000238505
-0.000240624
-0.000242749
-0.000244879
-0.000247015
-0.000249155
-0.0002513
-0.000253451
-0.000255607
-0.000257768
-0.000259933
-0.000262104
-0.00026428
-0.000266461
-0.000268647
-0.000270838
-0.000273034
-0.000275235
-0.000277441
-0.000279652
-0.000281868
-0.000284088
-0.000286313
-0.000288544
-0.000290779
-0.000293019
-0.000295263
-0.000297513
-0.000299767
-0.000302026
-0.000304289
-0.000306558
-0.00030883
-0.000311108
-0.00031339
-0.000315677
-0.000317969
-0.000320265
-0.000322565
-0.00032487
-0.00032718
-0.000329494
-0.000331812
-0.000334135
-0.000336463
-0.000338794
-0.000341131
-0.000343471
-0.000345816
-0.000348165
-0.000350519
-0.000352876
-0.000355238
-0.000357605
-0.000359975
-0.00036235
-0.000364729
-0.000367112
-0.000369499
-0.00037189
-0.000374285
-0.000376684
-0.000379088
-0.000381495
-0.000383906
-0.000386322
-0.000388741
-0.000391164
-0.000393591
-0.000396022
-0.000398457
-0.000400895
-0.000403338
-0.000405784
-0.000408234
-0.000410687
-0.000413144
-0.000415605
-0.00041807
-0.000420538
-0.00042301
-0.000425486
-0.000427965
-0.000430447
-0.000432933
-0.000435423
-0.000437916
-0.000440412
-0.000442912
-0.000445415
-0.000447921
-0.000450431
-0.000452944
-0.000455461
-0.000457981
-0.000460503
-0.000463029
-0.000465559
-0.000468091
-0.000470627
-0.000473165
-0.000475707
-0.000478252
-0.000480799
-0.00048335
-0.000485904
-0.00048846
-0.00049102
-0.000493582
-0.000496147
-0.000498715
0.000501286
0.000503859
0.000506436
0.000509015
0.000511596
0.000514181
0.000516768
0.000519357
0.000521949
0.000524544
0.000527141
0.000529741
0.000532343
0.000534947
0.000537554
0.000540164
0.000542775
0.000545389
0.000548006
0.000550624
0.000553245
0.000555868
0.000558493
0.00056112
0.000563749
0.000566381
0.000569014
0.000571649
0.000574287
0.000576926
0.000579567
0.000582211
0.000584856
0.000587503
0.000590151
0.000592802
0.000595454
0.000598108
0.000600763
0.000603421
0.000606079
0.00060874
0.000611402
0.000614065
0.00061673
0.000619397
0.000622065
0.000624734
0.000627405
0.000630077
0.00063275
0.000635425
0.000638101
0.000640778
0.000643456
0.000646135
0.000648816
0.000651498
0.00065418
0.000656864
0.000659549
0.000662234
0.000664921
0.000667608
0.000670296
0.000672985
0.000675675
0.000678366
0.000681057
0.000683749
0.000686442
0.000689136
0.000691829
0.000694524
0.000697219
0.000699915
0.000702611
0.000705307
0.000708004
0.000710701
0.000713398
0.000716096
0.000718794
0.000721493
0.000724191
0.00072689
0.000729589
0.000732287
0.000734986
0.000737685
0.000740384
0.000743083
0.000745782
0.00074848
0.000751179
0.000753877
0.000756576
0.000759273
0.000761971
0.000764668
0.000767365
0.000770062
0.000772758
0.000775454
0.000778149
0.000780843
0.000783537
0.000786231
0.000788924
0.000791616
0.000794307
0.000796998
0.000799688
0.000802377
0.000805065
0.000807753
0.000810439
0.000813125
0.00081581
0.000818493
0.000821176
0.000823857
0.000826537
0.000829216
0.000831894
0.000834571
0.000837246
0.00083992
0.000842593
0.000845265
0.000847935
0.000850603
0.00085327
0.000855936
0.0008586
0.000861262
0.000863923
0.000866582
0.000869239
0.000871895
0.000874549
0.000877201
0.000879851
0.000882499
0.000885146
0.00088779
0.000890433
0.000893073
0.000895712
0.000898348
0.000900982
0.000903614
0.000906244
0.000908871
0.000911496
0.000914119
0.00091674
0.000919358
0.000921974
0.000924587
0.000927198
0.000929806
0.000932412
0.000935015
0.000937615
0.000940213
0.000942808
0.0009454
0.00094799
0.000950576
0.00095316
0.000955741
0.000958319
0.000960894
0.000963466
0.000966035
0.000968601
0.000971163
0.000973723
0.000976279
0.000978832
0.000981382
0.000983928
0.000986472
0.000989011
0.000991548
0.00099408
0.00099661
0.000999136
0.00100166
0.00100418
0.00100669
0.0010092
0.00101171
0.00101421
0.00101671
0.00101921
0.0010217
0.00102419
0.00102668
0.00102916
0.00103163
0.00103411
0.00103658
0.00103904
0.0010415
0.00104396
0.00104641
0.00104886
0.0010513
0.00105374
0.00105617
0.0010586
0.00106103
0.00106345
0.00106587
0.00106828
0.00107068
0.00107309
0.00107549
0.00107788
0.00108027
0.00108265
0.00108503
0.00108741
0.00108977
0.00109214
0.0010945
0.00109685
0.0010992
0.00110155
0.00110389
0.00110622
0.00110855
0.00111087
0.00111319
0.0011155
0.00111781
0.00112012
0.00112241
0.0011247
0.00112699
0.00112927
0.00113155
0.00113382
0.00113608
0.00113834
0.00114059
0.00114284
0.00114508
0.00114731
0.00114954
0.00115177
0.00115399
0.0011562
0.0011584
0.0011606
0.0011628
0.00116498
0.00116717
0.00116934
0.00117151
0.00117367
0.00117583
0.00117798
0.00118013
0.00118226
0.00118439
0.00118652
0.00118864
0.00119075
0.00119286
0.00119495
0.00119705
0.00119913
0.00120121
0.00120328
0.00120535
0.00120741
0.00120946
0.0012115
0.00121354
0.00121557
0.0012176
0.00121962
0.00122163
0.00122363
0.00122563
0.00122761
0.0012296
0.00123157
0.00123354
0.0012355
0.00123745
0.0012394
0.00124134
0.00124327
0.00124519
0.00124711
0.00124901
0.00125092
0.00125281
0.00125469
0.00125657
0.00125844
0.00126031
0.00126216
0.00126401
0.00126585
0.00126768
0.0012695
0.00127132
0.00127313
0.00127493
0.00127672
0.0012785
0.00128028
0.00128205
0.00128381
0.00128556
0.0012873
0.00128904
0.00129076
0.00129248
0.00129419
0.00129589
0.00129759
0.00129927
0.00130095
0.00130262
0.00130428
0.00130593
0.00130757
0.00130921
0.00131083
0.00131245
0.00131406
0.00131565
0.00131725
0.00131883
0.0013204
0.00132196
0.00132352
0.00132507
0.0013266
0.00132813
0.00132965
0.00133116
0.00133266
0.00133416
0.00133564
0.00133711
0.00133858
0.00134003
0.00134148
0.00134292
0.00134435
0.00134577
0.00134717
0.00134857
0.00134997
0.00135135
0.00135272
0.00135408
0.00135543
0.00135678
0.00135811
0.00135943
0.00136075
0.00136205
0.00136335
0.00136463
0.00136591
0.00136717
0.00136843
0.00136968
0.00137091
0.00137214
0.00137336
0.00137456
0.00137576
0.00137695
0.00137812
0.00137929
0.00138045
0.00138159
0.00138273
0.00138386
0.00138497
0.00138608
0.00138717
0.00138826
0.00138933
0.0013904
0.00139145
0.0013925
0.00139353
0.00139455
0.00139557
0.00139657
0.00139756
0.00139854
0.00139952
0.00140048
0.00140143
0.00140237
0.00140329
0.00140421
0.00140512
0.00140602
0.0014069
0.00140778
0.00140864
0.0014095
0.00141034
0.00141117
0.00141199
0.0014128
0.0014136
0.00141439
0.00141517
0.00141594
0.00141669
0.00141744
0.00141817
0.0014189
0.00141961
0.00142031
0.001421
0.00142168
0.00142234
0.001423
0.00142364
0.00142428
0.0014249
0.00142551
0.00142611
0.0014267
0.00142728
0.00142784
0.0014284
0.00142894
0.00142947
0.00143
0.0014305
0.001431
0.00143149
0.00143196
0.00143243
0.00143288
0.00143332
0.00143375
0.00143416
0.00143457
0.00143496
0.00143535
0.00143572
0.00143607
0.00143642
0.00143676
0.00143708
0.00143739
0.00143769
0.00143798
0.00143826
0.00143852
0.00143878
0.00143902
0.00143925
0.00143947
0.00143967
0.00143987
0.00144005
0.00144022
0.00144038
0.00144052
0.00144066
0.00144078
0.00144089
0.00144099
0.00144107
0.00144115
0.00144121
0.00144126
0.0014413
0.00144132
0.00144134
0.00144134
0
0.00144133
0.00144131
0.00144127
0.00144122
0.00144116
0.00144109
0.00144101
0.00144091
0.00144081
0.00144069
0.00144055
0.00144041
0.00144025
0.00144008
0.0014399
0.00143971
